timestamp_ms,emg1_raw,emg2_raw,fsr1,fsr2
2.2573000169359148,0,4095,1171,400
3.070700040552765,0,4095,1248,422
3.6135000409558415,0,4095,1319,442
4.186000034678727,0,4095,1382,466
4.72040002932772,0,4095,1443,496
5.32200001180172,403,2731,1323,496
5.897400027606636,3339,924,1150,489
6.393600022420287,4095,0,990,475
7.22880003741011,4095,0,912,469
7.83620000584051,4095,0,846,458
8.343300025444478,4095,0,784,439
8.840300026349723,4095,0,726,419
9.336300019640476,4095,0,676,400
10.615200037136674,4095,45,687,388
11.066900042351335,4095,0,946,398
11.491900018882006,4095,0,863,394
11.892500042449683,4095,0,787,386
12.354100006632507,4095,0,729,375
12.857599998824298,4095,0,684,369
13.34200002020225,4095,0,648,359
13.719600043259561,4095,0,603,342
14.123100030701607,3642,923,710,349
14.714799995999783,751,2714,880,362
14.861800009384751,0,4095,1060,383
14.979700034018606,0,4095,1146,394
15.102300036232919,0,4095,1225,415
15.218200045637786,0,4095,1295,435
15.336400014348328,0,4095,1362,464
15.476400032639503,0,4095,1424,487
15.629200031980872,0,4095,1428,502
15.846299997065216,2559,1398,1220,496
16.489600006025285,4095,206,1055,483
17.019800026901066,4095,0,951,475
17.57060003001243,4095,0,880,464
18.153800047002733,4095,0,815,449
18.935300002340227,4095,0,753,430
19.513900042511523,4095,0,700,409
20.02820000052452,4095,0,653,387
20.531200047116727,4095,0,946,399
21.10559999709949,4095,0,867,398
21.617000049445778,4095,0,791,387
22.23880001110956,4095,0,725,374
22.60349999414757,4095,0,686,369
22.72490004543215,4095,0,643,359
22.852800029795617,4095,0,607,346
22.965600015595555,4095,0,609,337
23.102200007997453,1406,2223,806,354
23.217300011310726,0,3583,976,369
23.351000039838254,0,4095,1101,384
23.49380002124235,0,4095,1183,400
23.61400000518188,0,4095,1261,423
23.93980004126206,0,4095,1328,445
24.070900049991906,0,4095,1392,473
24.187900009565055,0,4095,1456,500
24.32339999359101,1636,1934,1263,494
24.452200043015182,4095,555,1098,483
24.566300038713962,4095,0,969,475
24.69809999456629,4095,0,896,465
24.820799997542053,4095,0,828,450
24.937500013038516,4095,0,768,434
25.05110000493005,4095,0,711,416
25.15940001467243,4095,0,663,394
25.281200010795146,3657,933,759,393
25.39050002815202,4095,0,957,398
25.60490003088489,4095,0,873,391
26.235099998302758,4095,0,794,382
26.407900033518672,4095,0,730,373
26.547000044956803,4095,0,686,367
26.682800031267107,4095,0,641,353
26.81090001715347,4095,0,602,337
26.94589999737218,2288,1738,780,355
27.070700016338378,240,3134,943,368
27.216500020585954,0,4095,1090,385
27.332000026945025,0,4095,1172,399
27.446500025689602,0,4095,1250,421
27.56210003281012,0,4095,1319,443
27.684500033501536,0,4095,1382,466
27.807900041807443,0,4095,1445,496
27.94020000146702,383,2783,1328,496
28.08080002432689,3349,940,1153,491
28.192300000227988,4095,0,987,479
28.412100044079125,4095,0,913,467
29.127400019206107,4095,0,848,459
29.633000027388334,4095,0,785,439
30.132100044284016,4095,0,729,419
30.633400019723922,4095,0,679,399
31.130600022152066,4095,0,677,387
31.733900017570704,1401,2279,866,395
32.2615000186488,4095,0,976,400
32.76730002835393,4095,0,883,397
33.274799992796034,4095,0,807,386
33.77600002568215,4095,0,739,373
34.27970001939684,4095,0,689,367
34.839100029785186,4095,0,644,352
35.41170002426952,3731,816,733,355
35.9848000225611,753,2660,898,368
36.54030000325292,0,4095,1079,386
37.74850000627339,0,4095,1165,400
38.31180004635826,0,4095,1239,417
38.84769999422133,0,4095,1310,444
39.38420000486076,0,4095,1374,465
39.92589999688789,0,4095,1434,493
40.48060002969578,0,4078,1424,506
41.30550002446398,2559,1339,1217,498
42.978800018318,4095,176,1051,488
43.407300021499395,4095,0,951,480
43.585300038103014,4095,0,880,466
43.71739999623969,4095,0,816,451
43.860800040420145,4095,0,753,433
44.00090000126511,4095,0,703,412
44.13160000694916,4095,0,654,389
44.277100008912385,2305,1692,819,395
44.40400004386902,4095,0,966,399
44.76200003409758,4095,0,880,395
45.34450004575774,4095,0,800,384
45.871100039221346,4095,0,736,371
46.477399999275804,4095,0,688,366
47.06020001322031,4095,0,642,354
47.6011999999173,4095,0,646,347
48.26950002461672,1386,2277,842,362
48.83860005065799,0,3637,1005,379
49.48700004024431,0,4095,1125,394
50.123399996664375,0,4095,1203,410
50.73150002863258,0,4095,1277,432
51.304500026162714,0,4095,1343,453
51.87349999323487,0,4095,1405,478
52.442000014707446,0,4095,1463,506
52.6034000213258,1575,2011,1278,501
52.75700002675876,4095,606,1117,493
52.880900038871914,4095,0,976,481
53.00720001105219,4095,0,909,467
53.12920000869781,4095,0,837,453
53.39980003191158,4095,0,775,436
53.69250004878268,4095,0,720,419
53.81180002586916,4095,0,667,395
53.937000047881156,3609,913,762,394
54.06970001058653,4095,0,960,397
54.192000010516495,4095,0,876,395
54.48710004566237,4095,0,795,384
54.999600048176944,4095,0,735,374
55.43020000914112,4095,0,688,368
55.79400004353374,4095,0,643,355
56.1843000468798,4095,0,602,339
56.69470003340393,2323,1721,783,357
57.19590000808239,256,3130,942,368
57.636900048237294,0,4095,1091,384
58.356599998660386,0,4095,1174,400
59.02240000432357,0,4095,1250,422
59.765900019556284,0,4095,1322,444
60.36940001649782,0,4095,1381,471
60.95180002739653,0,4095,1442,496
61.6262000403367,399,2809,1329,498
62.272700015455484,3349,906,1151,493
62.82740004826337,4095,0,991,479
63.38880001567304,4095,0,914,470
63.930300006177276,4095,0,848,458
64.47450001724064,4095,0,784,441
65.01640001079068,4095,0,729,425
65.55420003132895,4095,0,677,400
66.09610002487898,4095,0,665,385
66.63450004998595,4095,0,944,393
67.1740000252612,4095,0,858,387
67.71120004123077,4095,0,787,384
68.25140002183616,4095,0,723,372
68.79320001462474,4095,0,683,368
69.35970002086833,4095,0,640,357
69.97360003879294,4095,0,603,341
70.97880000947043,3430,878,702,346
71.45720004336908,752,2698,876,360
71.8392000417225,0,4095,1058,380
72.23350001731887,0,4095,1145,395
72.42030004272237,0,4095,1225,413
72.60700000915676,0,4095,1296,433
72.8320000343956,0,4095,1360,459
73.02400004118681,0,4095,1422,486
73.20650003384799,0,4095,1430,501
73.55500000994653,2604,1398,1216,496
74.22530004987493,4095,208,1052,484
74.77800000924617,4095,0,950,475
75.42589999502525,4095,0,879,464
76.37960003921762,4095,0,815,447
76.94500003708526,4095,0,752,432
77.51410000491887,4095,0,698,407
78.07720004348084,4095,0,652,386
78.74300004914403,2206,1727,819,393
79.28720000199974,4095,0,967,400
79.7325000166893,4095,0,880,399
80.18039999296889,4095,0,802,385
80.70950000546873,4095,0,736,375
81.32420002948493,4095,0,688,368
81.86219999333844,4095,0,643,354
82.3633000254631,4095,0,643,349
82.87400001427159,1363,2270,841,365
83.37579999351874,0,3603,1005,379
83.93790002446622,0,4095,1122,391
84.4984000432305,0,4095,1205,410
85.07710002595559,0,4095,1278,430
85.66300000529736,0,4095,1344,450
86.2226000172086,0,4095,1407,478
86.80320001440123,0,4095,1463,505
87.44710002792999,1717,1930,1269,496
88.34100002422929,4095,555,1105,490
89.40960001200438,4095,0,975,478
89.59720004349947,4095,0,903,468
89.77800002321601,4095,0,833,455
89.95500003220513,4095,0,771,436
90.12990002520382,4095,0,719,417
90.29780002310872,4095,0,667,394
90.47860000282526,3382,880,757,394
90.6410000170581,4095,0,956,397
90.79869999550283,4095,0,873,391
90.95680003520101,4095,0,795,384
91.12340002320707,4095,0,731,370
91.29180002491921,4095,0,687,367
91.45340003306046,4095,0,641,354
91.60620003240183,4095,0,602,336
91.78080002311617,2183,1682,778,354
91.9506000354886,266,3091,934,368
92.11319999303669,0,4095,1088,384
92.27560000726953,0,4095,1170,400
92.43770001921803,0,4095,1248,422
92.5849000341259,0,4095,1316,442
93.17240002565086,0,4095,1385,467
93.76780001912266,0,4095,1442,496
94.48600001633167,541,2789,1328,496
95.16379999695346,3344,950,1153,492
95.7295999978669,4095,0,990,478
96.29260003566742,4095,0,914,467
96.87589999521151,4095,0,846,455
97.44270000373945,4095,0,784,439
98.00440003164113,4095,0,727,422
98.56569999828935,4095,0,676,399
99.15850003017113,4095,36,681,386
99.79930002009496,4095,0,945,395
100.34840001026168,4095,0,863,391
100.82079999847338,4095,0,784,383
101.31670004921034,4095,0,721,369
101.90470004454255,4095,0,679,366
102.54450002685189,4095,0,640,355
102.83150000032037,4095,0,601,339
102.97980002360418,3346,960,707,348
103.1269000377506,725,2717,878,359
103.26709999935701,0,4095,1058,378
103.4065000130795,0,4095,1141,394
103.54610002832487,0,4095,1225,415
103.68810000363737,0,4095,1295,432
104.00180000578985,0,4095,1360,461
104.16310001164675,0,4095,1421,486
104.3123000417836,0,4095,1424,501
104.4806000427343,2559,1392,1214,495
104.64309999952093,4095,211,1053,484
104.8024000483565,4095,0,949,475
104.99190003611147,4095,0,875,464
105.15380004653707,4095,0,813,447
105.2991000469774,4095,0,752,432
105.44740001205355,4095,0,695,407
105.59190000640228,4095,0,650,387
105.74670002097264,4095,0,944,391
105.90470000170171,4095,0,862,391
106.1113000032492,4095,0,789,384
106.46410001209006,4095,0,723,371
106.64260003250092,4095,0,683,368
106.7950000287965,4095,0,641,357
106.94470000453293,4095,0,603,344
107.10970003856346,4095,105,630,339
107.32950002420694,1399,2330,819,355
107.59020003024489,0,3754,991,370
107.8733000322245,0,4095,1105,385
108.15470002125949,0,4095,1190,400
108.46140002831817,0,4095,1264,425
108.79309999290854,0,4095,1329,448
109.10120001062751,0,4095,1395,471
109.74390001501888,0,4095,1456,502
110.4130000458099,1744,1985,1267,495
111.11240001628175,4095,573,1104,487
111.49989999830723,4095,0,971,477
111.81390000274405,4095,0,896,464
112.12370003340766,4095,0,829,449
112.42360004689544,4095,0,769,432
112.71840002154931,4095,0,711,416
113.01380000077188,4095,0,660,393
113.38080000132322,3599,812,748,390
113.67480002809316,4095,0,951,394
113.84720000205562,4095,0,866,390
114.02120004640892,4095,0,791,382
114.19590003788471,4095,0,726,373
114.36320003122091,4095,0,683,368
114.49850001372397,4095,0,639,354
114.63810002896935,4095,0,599,338
114.80199999641627,2273,1663,769,352
114.95960003230721,197,3071,929,368
115.11360004078597,0,4095,1084,384
115.2651000302285,0,4095,1168,399
115.39190000621602,0,4095,1246,419
115.54810003144667,0,4095,1314,439
115.82120001548901,0,4095,1378,466
116.08230002457276,0,4095,1439,496
116.3512000348419,362,2719,1319,496
116.60760000813752,3359,927,1147,489
116.9205000041984,4095,0,986,475
117.15770000591874,4095,0,912,466
117.40089999511838,4095,0,844,456
117.67110001528636,4095,0,783,438
117.99910000991076,4095,0,723,422
118.46790002891794,4095,0,673,399
119.0743000479415,4095,48,681,389
119.806700036861,4095,0,944,391
120.7488999934867,4095,0,859,389
121.18930002907291,4095,0,786,379
121.48410000372678,4095,0,720,368
121.73870002152398,4095,0,678,367
121.98980001267046,4095,0,639,353
122.23080004332587,4095,0,596,338
122.6800000295043,3700,937,704,343
123.16310004098341,743,2707,874,358
123.54530004085973,0,4095,1056,379
123.89940000139177,0,4095,1142,394
124.2690000217408,0,4095,1219,411
124.46530000306666,0,4095,1295,432
124.64650004403666,0,4095,1357,459
124.77980001131073,0,4095,1421,485
124.92360000032932,0,4095,1421,498
125.08120003622025,2559,1390,1212,496
125.2301000058651,4095,208,1046,480
125.37250004243106,4095,0,944,473
125.50130003364757,4095,0,877,464
125.63220004085451,4095,0,810,445
125.76330004958436,4095,0,752,429
125.89150003623217,4095,0,697,406
126.0240999981761,4095,0,647,387
126.20110000716522,2329,1695,815,395
126.48890004493296,4095,0,960,398
126.76190002821386,4095,0,874,390
127.01970001216978,4095,0,794,384
127.25250003859401,4095,0,730,374
127.3967000306584,4095,0,685,365
127.54060002043843,4095,0,640,353
127.68620002316311,4095,0,628,341
127.84730002749711,1395,2227,830,357
128.00870003411546,0,3571,991,370
128.15610005054623,0,4095,1114,389
128.344000026118,0,4095,1197,407
128.54950001928955,0,4095,1267,427
128.74630000442266,0,4095,1334,448
128.94340005004779,0,4095,1399,475
129.14309999905527,0,4095,1458,503
129.47220000205562,1581,1919,1263,496
129.7426000237465,4095,541,1100,490
129.99510002555326,4095,0,967,475
130.61210000887513,4095,0,896,467
130.9441000339575,4095,0,827,453
131.2379000009969,4095,0,769,434
131.37020001886413,4095,0,714,413
131.5106000402011,4095,0,659,390
131.65630004368722,3781,881,753,389
131.78490003338084,4095,0,949,393
131.9140000268817,4095,0,868,390
132.05300003755838,4095,0,787,378
132.18390004476532,4095,0,725,369
132.3170000105165,4095,0,682,366
132.45080003980547,4095,0,638,354
132.59660004405305,4095,0,595,338
132.74820003425702,2337,1702,769,350
132.89550004992634,225,3094,931,365
133.03430000087246,0,4095,1082,382
133.1740000168793,0,4095,1167,399
133.31410003593192,0,4095,1245,419
133.45320004737005,0,4095,1315,438
133.59149999450892,0,4095,1377,466
133.72840004740283,0,4095,1440,496
133.87990003684536,316,2800,1328,496
134.03010001638904,3361,947,1151,490
134.16230003349483,4095,0,988,479
134.29310003994033,4095,0,912,467
134.42630000645295,4095,0,846,455
134.62970004184172,4095,0,783,439
134.86890000058338,4095,0,726,421
135.0154000101611,4095,0,674,399
135.17180003691465,4095,0,661,384
135.37940004607663,4095,0,942,391
135.62200003070757,4095,0,855,389
135.86840004427359,4095,0,783,382
136.12910005031154,4095,0,719,370
136.3448000047356,4095,0,675,367
136.49550004629418,4095,0,635,353
136.6785000427626,4095,0,593,338
136.84390002163127,3716,871,698,345
137.0155000477098,720,2682,867,360
137.19790003960952,0,4095,1052,379
137.34280003700405,0,4095,1136,391
137.51400000182912,0,4095,1217,411
137.72850000532344,0,4095,1290,434
137.9399000434205,0,4095,1355,458
138.15320003777742,0,4095,1418,483
138.31670000217855,0,4095,1408,498
138.48150003468618,2547,1343,1203,495
138.64230003673583,4095,162,1040,481
138.79739999538288,4095,0,943,472
138.945100014098,4095,0,870,462
139.08440002705902,4095,0,803,446
139.22150002326816,4095,0,749,432
139.363800000865,4095,0,691,409
139.50809999369085,4095,0,644,385
139.6812000311911,2341,1629,806,391
139.82810004381463,4095,0,958,398
139.9733000434935,4095,0,869,391
140.12980001280084,4095,0,791,384
140.29670000309125,4095,0,727,374
140.48310002544895,4095,0,679,365
140.66999999340624,4095,0,637,352
140.85800002794713,4095,0,640,345
141.07230002991855,1413,2282,834,358
141.26040000701323,0,3680,1002,379
141.46230003098026,0,4095,1119,387
141.63950004149228,0,4095,1200,405
141.82610000716522,0,4095,1271,428
142.014300043229,0,4095,1339,449
142.2012000111863,0,4095,1405,475
142.39350002026185,0,4095,1461,503
142.6115000504069,1588,2053,1279,496
142.8262999979779,4095,597,1111,490
143.03320000180975,4095,0,976,480
143.22700002230704,4095,0,900,466
143.46069999737665,4095,0,833,455
143.734100041911,4095,0,773,437
144.00800003204495,4095,0,714,417
144.2819000221789,4095,0,662,394
144.50230001239106,3700,904,757,391
144.6980000473559,4095,0,950,390
144.9811000493355,4095,0,866,390
145.23870003176853,4095,0,787,379
145.6220000400208,4095,0,723,370
146.10380004160106,4095,0,683,367
146.48510003462434,4095,0,637,353
146.8307000468485,4095,0,599,337
147.46530004777014,2335,1654,769,351
147.8993000346236,210,3086,929,367
148.4566000290215,0,4095,1084,383
149.13060003891587,0,4095,1167,399
149.7967000468634,0,4095,1243,417
150.3610000363551,0,4095,1311,438
150.79280000645667,0,4095,1377,466
151.27570001641288,0,4095,1437,496
151.61719999741763,336,2777,1323,495
151.97190002072603,3344,938,1149,491
152.36740000545979,4095,0,985,478
153.03310001036152,4095,0,912,468
153.40490004746243,4095,0,843,458
153.5691000171937,4095,0,782,437
153.71770004276186,4095,0,722,420
153.86850002687424,4095,0,674,399
154.0464000427164,4095,0,662,384
154.19299999484792,4095,0,938,390
154.3443000409752,4095,0,853,387
154.49089999310672,4095,0,782,378
154.63720000116155,4095,0,720,369
154.77800002554432,4095,0,675,366
154.92270002141595,4095,0,634,353
155.06530000129715,4095,0,594,336
155.355499999132,3728,937,703,346
155.75120004359633,738,2703,871,358
156.1321000335738,0,4095,1055,378
156.56480001052842,0,4095,1138,391
156.98280005017295,0,4095,1221,413
157.40900003584102,0,4095,1291,432
157.85240003606305,0,4095,1355,460
158.26799999922514,0,4095,1417,483
158.57840003445745,0,4095,1427,502
158.90820004278794,2551,1424,1217,495
159.23809999367222,4095,233,1054,483
159.8012000322342,4095,0,949,476
160.44750000583008,4095,0,877,463
161.09740000683814,4095,0,811,448
161.52730002067983,4095,0,752,430
161.93260002182797,4095,0,695,410
162.35500003676862,4095,0,651,385
162.56270004669204,2322,1747,818,394
162.70869999425486,4095,0,960,400
162.85459999926388,4095,0,873,391
163.00240001874045,4095,0,795,383
163.14740001689643,4095,0,731,373
163.29490003408864,4095,0,682,366
163.44200004823506,4095,0,640,354
163.61230000620708,4095,0,643,349
164.0455000451766,1379,2259,835,361
164.36990001238883,0,3620,999,378
164.6032000426203,0,4095,1118,390
164.8581000044942,0,4095,1199,409
165.5536000034772,0,4095,1270,431
166.12040001200512,0,4095,1337,450
166.38390003936365,0,4095,1403,480
166.54890001518652,0,4095,1459,507
166.73460003221408,1571,1923,1264,498
166.91520001040772,4095,530,1102,493
167.07470000255853,4095,0,971,481
167.23620000993833,4095,0,896,468
167.39190003136173,4095,0,829,454
167.5552999950014,4095,0,768,434
167.70990000804886,4095,0,710,417
167.86149999825284,4095,0,659,397
168.021299992688,3730,811,749,390
168.16970001673326,4095,0,945,396
168.32729999441653,4095,0,863,391
168.4730999986641,4095,0,785,382
168.61710004741326,4095,0,723,374
168.7664000201039,4095,0,682,368
168.91170002054423,4095,0,637,356
169.06109999399632,4095,0,594,341
169.29039999376982,2333,1773,779,353
170.1205000281334,208,3166,939,368
170.47750001074746,0,4095,1087,385
170.82560004200786,0,4095,1168,400
171.14710004534572,0,4095,1246,422
171.2985000340268,0,4095,1311,443
171.4425000245683,0,4095,1378,467
171.58650001510978,0,4095,1438,496
171.74650001106784,304,2869,1330,497
171.9065000070259,3374,961,1153,493
172.05360002117231,4095,0,987,479
172.20040003303438,4095,0,912,471
172.34330001519993,4095,0,846,460
172.48940002173185,4095,0,784,443
172.64250002335757,4095,0,725,422
172.781000030227,4095,0,676,400
172.9196000378579,4095,0,676,387
173.07660001097247,1426,2258,861,398
173.2157000224106,4095,0,966,400
173.3838000218384,4095,0,879,397
173.55970002245158,4095,0,798,382
173.7305000424385,4095,0,730,375
173.92329999711365,4095,0,683,363
174.09470002166927,4095,0,637,351
174.2695000139065,3794,816,727,355
174.42039999878034,711,2675,896,368
174.5640000444837,0,4095,1074,387
174.7118000057526,0,4095,1159,400
174.86000002827495,0,4095,1234,419
175.01170001924038,0,4095,1305,439
175.16119999345392,0,4095,1367,466
175.31130003044382,0,4095,1427,492
175.46040000161156,0,4095,1429,509
175.63440004596487,2555,1375,1221,498
175.79470004420727,4095,194,1053,489
175.93710002256557,4095,0,951,480
176.0764000355266,4095,0,879,465
176.21639999561012,4095,0,816,450
176.49720003828406,4095,0,753,432
176.79040000075474,4095,0,700,413
177.088399999775,4095,0,650,388
177.33130004489794,4095,0,941,396
177.48310003662482,4095,0,858,390
177.62560001574457,4095,0,784,384
177.76960000628605,4095,0,720,375
177.91150003904477,4095,0,679,368
178.05899999802932,4095,0,641,357
178.2041999977082,4095,0,598,346
178.34780004341155,4095,0,610,340
178.60560002736747,1421,2256,809,353
178.9138000458479,0,3627,976,370
179.19070000061765,0,4095,1098,384
179.4575999956578,0,4095,1179,400
179.76710002403706,0,4095,1262,425
180.11509999632835,0,4095,1325,447
180.47240003943443,0,4095,1391,474
180.74280000291765,0,4095,1450,502
181.03170004906133,1597,1950,1257,495
181.29160004900768,4095,570,1098,484
181.42969999462366,4095,0,963,475
181.56980001367629,4095,0,893,464
181.71100004110485,4095,0,822,449
181.85500003164634,4095,0,765,433
182.00000002980232,4095,0,707,414
182.14079999597743,4095,0,658,395
182.31360003119335,3770,835,747,389
182.45520000346005,4095,0,944,397
182.5972000369802,4095,0,861,391
182.73900001076981,4095,0,784,379
182.8827999997884,4095,0,720,373
183.04770003305748,4095,0,679,368
183.2074000267312,4095,0,635,353
183.35100001422688,4095,0,594,337
183.51320002693683,2349,1647,764,348
183.67620004573837,191,3086,926,368
183.82640002528206,0,4095,1082,381
183.97470004856586,0,4095,1163,400
184.12350001744926,0,4095,1238,417
184.274600003846,0,4095,1310,439
184.4480000436306,0,4095,1375,465
184.7461000434123,0,4095,1435,494
184.98419999377802,298,2832,1328,496
185.21160003729165,3360,967,1152,490
185.41259999619797,4095,0,986,478
185.6143000186421,4095,0,912,466
185.84740004735067,4095,0,843,455
186.04870000854135,4095,0,781,438
186.24890001956373,4095,0,723,420
186.40300002880394,4095,0,673,400
186.5453000064008,4095,0,673,384
186.706000007689,1436,2256,857,391
186.8495999951847,4095,0,965,396
186.9929000386037,4095,0,878,387
187.13640002533793,4095,0,797,381
187.29070003610104,4095,0,731,368
187.4330000136979,4095,0,682,357
187.5815000385046,4095,0,635,346
187.7358000492677,3770,822,723,353
187.889399996493,719,2688,895,367
188.03810002282262,0,4095,1075,385
188.18680004915223,0,4095,1162,399
188.3372000302188,0,4095,1234,414
188.48440004512668,0,4095,1301,437
188.63420002162457,0,4095,1367,464
188.78790002781898,0,4095,1429,491
188.93990002106875,0,4095,1438,509
189.11010003648698,2559,1407,1227,498
189.2736000008881,4095,210,1056,487
189.42480004625395,4095,0,954,479
189.5669000223279,4095,0,880,465
189.70770004671067,4095,0,816,451
189.84700000146404,4095,0,752,432
190.00290002441034,4095,0,701,411
190.14640001114458,4095,0,651,388
190.3118000482209,2322,1728,819,397
190.45210001058877,4095,0,960,395
190.59310003649443,4095,0,871,391
190.73240004945546,4095,0,795,379
190.87200000649318,4095,0,729,370
191.01460004458204,4095,0,682,362
191.156700020656,4095,0,639,350
191.30090001272038,4095,0,640,342
191.46540004294366,1392,2275,833,359
191.61070004338399,0,3602,996,375
191.76100002368912,0,4095,1116,388
191.9501000083983,0,4095,1198,405
192.10240000393242,0,4095,1271,428
192.25560000631958,0,4095,1337,449
192.407299997285,0,4095,1399,477
192.55650002742186,0,4095,1457,502
192.72350001847371,1584,1936,1265,496
192.88350001443177,4095,550,1101,487
193.03980004042387,4095,0,971,478
193.18960001692176,4095,0,897,464
193.33690003259107,4095,0,827,453
193.48040001932532,4095,0,766,433
193.6268000281416,4095,0,711,415
193.77400004304945,4095,0,659,391
193.93140001920983,3793,810,746,388
194.0776000265032,4095,0,946,397
194.22350003151223,4095,0,863,390
194.37100004870445,4095,0,785,379
194.51600004686043,4095,0,721,374
194.66300000203773,4095,0,678,365
194.80739999562502,4095,0,636,355
194.95160004589707,4095,0,593,336
195.1145000057295,2334,1659,767,351
195.27260004542768,202,3071,925,366
195.42460003867745,0,4095,1079,382
195.57750003878027,0,4095,1165,398
195.7292000297457,0,4095,1237,418
195.9006999968551,0,4095,1311,439
196.1998000042513,0,4095,1373,464
196.3621000177227,0,4095,1434,494
196.5236000251025,292,2787,1323,495
196.68720004847273,3381,946,1147,490
196.83339999755844,4095,0,982,475
196.9770000432618,4095,0,910,467
197.12710002204403,4095,0,844,452
197.27629999397323,4095,0,779,438
197.42040004348382,4095,0,722,419
197.56280002184212,4095,0,672,400
197.7150000166148,4095,73,682,387
197.86150002619252,4095,0,938,391
198.00740003120154,4095,0,854,390
198.15650000236928,4095,0,782,382
198.30370001727715,4095,0,718,371
198.4579000272788,4095,0,673,367
198.60639999387786,4095,0,635,354
198.75570002477616,4095,0,593,337
198.91650002682582,3835,864,691,343
199.07570001669228,735,2671,863,355
199.2286000167951,0,4095,1047,375
199.37800004845485,0,4095,1136,390
199.53220000024885,0,4095,1215,411
199.6870000148192,0,4095,1285,430
199.84070002101362,0,4095,1352,455
199.9993000063114,0,4095,1413,480
200.1536000170745,0,4095,1435,506
200.3273000009358,2547,1447,1219,496
200.50960005028173,4095,227,1053,483
200.65990003058687,4095,0,946,470
200.8096000063233,4095,0,875,464
200.9591000387445,4095,0,811,448
201.1330000241287,4095,0,752,431
201.3507999945432,4095,0,693,410
201.49960002163425,4095,0,648,386
201.666800014209,2314,1737,816,393
201.81130000855774,4095,0,955,399
201.964300009422,4095,0,870,397
202.11250003194436,4095,0,790,384
202.26020005065948,4095,0,726,374
202.41280004847795,4095,0,681,366
202.56180001888424,4095,0,635,352
202.71530002355576,4095,0,624,341
202.89499999489635,1398,2197,821,357
203.04450002731755,0,3511,979,373
203.19860003655776,0,4095,1106,387
203.3540999982506,0,4095,1189,403
203.51290004327893,0,4095,1264,427
203.67000001715496,0,4095,1330,447
203.8448000093922,0,4095,1394,475
203.99840001482517,0,4095,1456,502
204.17430001543835,1583,1875,1255,495
204.35270003508776,4095,510,1091,484
204.5090000028722,4095,0,964,475
204.65760002844036,4095,0,891,464
204.80470004258677,4095,0,825,452
204.95570002822205,4095,0,763,435
205.11490001808852,4095,0,707,413
205.26720001362264,4095,0,656,389
205.43160004308447,3819,817,744,388
205.583100032527,4095,0,944,395
205.7378000463359,4095,0,860,387
205.88940003653988,4095,0,784,381
206.04140002978966,4095,0,720,373
206.19530003750697,4095,0,676,366
206.3507999991998,4095,0,633,353
206.50040003238246,4095,0,593,336
206.6690000356175,2362,1664,771,352
206.83310000458732,148,3102,926,365
206.98920002905652,0,4095,1083,382
207.14380004210398,0,4095,1164,393
207.29789999313653,0,4095,1238,416
207.45310001075268,0,4095,1310,438
207.60800002608448,0,4095,1375,464
207.76300004217774,0,4095,1433,493
207.92930002789944,199,2801,1323,495
208.10730004450306,3408,965,1151,487
208.26149999629706,4095,0,983,475
208.4195000352338,4095,0,912,466
208.57200003229082,4095,0,845,454
208.72630004305393,4095,0,782,438
208.88500002911314,4095,0,721,416
209.03700002236292,4095,0,673,398
209.18990002246574,4095,0,659,381
209.33939999667928,4095,0,938,387
209.49040004052222,4095,0,849,385
209.65490001253784,4095,0,781,379
209.89940001163632,4095,0,718,368
210.1321000372991,4095,0,671,362
210.31930000754073,4095,0,632,350
210.47710004495457,4095,0,592,336
210.64450003905222,3888,880,696,342
210.8136000460945,640,2686,866,355
210.9747000504285,0,4095,1050,374
211.1354999942705,0,4095,1136,387
211.29649999784306,0,4095,1216,407
211.45580004667863,0,4095,1286,428
211.61850000498816,0,4095,1351,455
211.77870000246912,0,4095,1414,482
211.94120001746342,0,4095,1425,498
212.1218999964185,2607,1393,1215,493
212.3151000123471,4095,201,1047,480
212.4889999977313,4095,0,946,471
212.80239999759942,4095,0,871,462
212.95760001521558,4095,0,809,446
213.11430004425347,4095,0,750,431
213.26570003293455,4095,0,692,405
213.42330001061782,4095,0,643,384
213.59670005040243,2316,1653,809,389
213.749100046698,4095,0,955,394
213.90670002438128,4095,0,867,389
214.06530000967905,4095,0,787,381
214.22600001096725,4095,0,725,370
214.38310004305094,4095,0,678,363
214.54110002378002,4095,0,635,350
214.70640000188723,4095,0,625,341
214.9018000345677,1344,2248,830,355
215.05930001148954,0,3645,993,370
215.22260003257543,0,4095,1111,387
215.3863999992609,0,4095,1195,406
215.5503000249155,0,4095,1265,426
215.71910002967343,0,4095,1332,448
215.878100018017,0,4095,1397,473
216.0378000116907,0,4095,1456,500
216.2493000505492,1910,2012,1270,496
216.42170002451167,4095,551,1103,486
216.57690004212782,4095,0,971,477
216.73200000077486,4095,0,896,464
216.88710001762956,4095,0,829,449
217.06019999692217,4095,0,768,433
217.21610001986846,4095,0,709,414
217.37280004890636,4095,0,659,392
217.54230000078678,2709,901,752,389
217.72680000867695,4095,0,945,391
217.9009999963455,4095,0,861,389
218.11580000212416,4095,0,784,379
218.27430004486814,4095,0,722,368
218.43020000960678,4095,0,678,368
218.58700003940612,4095,0,638,352
218.74209999805316,4095,0,592,336
218.91860000323504,1700,1745,774,350
219.11340003134683,336,3195,943,367
219.2901000380516,0,4095,1086,382
219.46330001810566,0,4095,1168,396
219.6610000100918,0,4095,1243,416
219.84279999742284,0,4095,1312,437
220.00980004668236,0,4095,1376,464
220.1770000392571,0,4095,1435,492
220.3653000178747,1425,2949,1342,496
220.54150002077222,3094,915,1146,486
220.69650003686547,4095,0,987,474
220.8560000290163,4095,0,913,464
221.0159000242129,4095,0,846,452
221.1784000392072,4095,0,783,435
221.33490000851452,4095,0,722,418
221.49050002917647,4095,0,673,400
221.6467999969609,2794,0,638,375
221.80320002371445,4095,0,933,390
221.96100000292063,4095,0,853,389
222.1212000004016,4095,0,779,379
222.27950004162267,4095,0,718,370
222.44010004214942,4095,0,670,364
222.599100030493,4095,0,631,353
222.75580000132322,4095,0,591,336
222.92400000151247,2125,645,670,338
223.0942000169307,928,2691,864,355
223.26670004986227,57,4095,1047,374
223.4306000173092,0,4095,1135,387
223.5923000262119,0,4095,1214,407
223.7522000214085,0,4095,1284,429
223.91180001432076,0,4095,1349,454
224.07150000799447,0,4095,1411,481
224.24940002383664,1314,4095,1431,501
224.4391000131145,2637,1333,1200,487
224.60570000112057,3858,86,1022,477
224.7633000370115,4095,0,939,471
224.9242000398226,4095,0,868,459
225.08150001522154,4095,0,802,443
225.23979999823496,4095,0,743,426
225.40090000256896,4095,0,688,403
225.56560003431514,2896,0,635,378
225.73830001056194,4034,0,933,386
225.89540004264563,4095,0,851,385
226.05270001804456,4095,0,780,380
226.21280001476407,4095,0,719,368
226.37360001681373,4095,0,676,365
226.53010004432872,4095,0,634,354
226.6871000174433,4079,0,593,340
226.84479999588802,2375,0,586,334
227.0235000178218,1296,2284,807,349
227.19430003780872,431,3776,981,369
227.36060002353042,0,4095,1094,382
227.53040003590286,0,4095,1178,400
227.69560001324862,0,4095,1255,421
227.86290000658482,0,4095,1322,444
228.0282000428997,0,4095,1389,471
228.21359999943525,1013,4095,1455,501
228.40700001688674,2223,2099,1268,494
228.60440000658855,3234,546,1088,470
228.8214000291191,4095,0,963,474
229.11000001477078,4095,0,891,464
229.35259999940172,4095,0,820,449
229.6896000043489,4095,0,763,432
229.87929999362677,4095,0,709,414
230.04980001132935,3104,0,653,387
230.23420001845807,3467,208,960,395
230.42100004386157,4095,0,863,389
230.6050000479445,4095,0,790,384
230.78710003755987,4095,0,729,375
230.95810000086203,4095,0,688,368
231.1350000090897,4095,0,643,362
231.30800004582852,4095,0,603,348
231.47890000836924,2661,0,563,330
231.67370003648102,1655,1643,748,347
231.86510003870353,753,3181,927,367
232.0542000234127,48,4095,1071,378
232.2408000472933,0,4095,1154,395
232.4518000241369,0,4095,1232,416
232.62660001637414,0,4095,1303,434
232.79710003407672,0,4095,1367,464
232.98670002259314,722,4095,1436,495
233.1854000221938,1872,2901,1328,496
233.3803999936208,2896,890,1136,486
233.5499000037089,3906,0,977,473
233.7188000092283,4095,0,907,465
233.88600000180304,4095,0,839,450
234.05389999970794,4095,0,775,435
234.22270000446588,4095,0,720,417
234.41999999340624,2163,2173,1172,416
234.625400044024,2832,975,1042,413
234.87370001384988,3441,206,903,401
235.04200001480058,4095,0,816,398
235.21250003250316,4095,0,763,395
235.37800001213327,4095,0,717,388
235.54350004997104,4095,0,672,378
235.71900004753843,4095,0,630,366
235.882600012701,2940,0,588,347
236.0587000148371,1958,843,688,350
236.24070000369102,1004,2765,879,368
236.42370000015944,288,4095,1055,384
236.59260000567883,0,4095,1138,395
236.7729000397958,0,4095,1218,413
236.94120004074648,0,4095,1289,434
237.1117000002414,0,4095,1353,461
237.30540001997724,366,4095,1421,489
237.5027000089176,1521,4095,1438,508
237.6955000218004,2559,1322,1201,496
237.87680000532418,3518,92,1023,479
238.0486000329256,0,4095,1525,468
238.22420003125444,0,4095,1559,486
238.40100003872067,0,4095,1584,505
238.57470002258196,0,4095,1613,529
238.75930003123358,754,4095,1649,560
238.95220004487783,1870,2878,1511,560
239.13850000826642,2867,865,1291,544
239.31110004195943,3838,0,1125,531
239.48660003952682,4095,0,1037,511
239.64949999935925,4095,0,949,498
239.8107000044547,4095,0,875,478
239.98830001801252,4095,0,805,458
240.15470000449568,3280,0,738,431
240.32600002828985,2282,0,706,410
240.5080000171438,1296,2288,915,423
240.68899999838322,525,3774,1088,433
240.8583000069484,0,4095,1182,436
241.02950002998114,0,4095,1255,448
241.20240000775084,0,4095,1325,465
241.38180003501475,0,4095,1383,484
241.5599999949336,0,4095,1445,507
241.74950004089624,1170,4095,1507,542
241.93790002027526,358,4095,1653,497
242.1153000323102,0,4095,1659,511
242.2941999975592,0,4095,1667,529
242.49560001771897,0,4095,1675,542
242.67440004041418,0,4095,1690,560
242.84810002427548,0,4095,1709,581
243.04240004858002,443,4095,1729,605
243.24550002347678,1554,4095,1723,623
243.44160000327975,2559,1361,1447,595
243.63780004205182,3465,132,1246,578
243.81790001643822,4095,0,1136,565
243.99410001933575,4095,0,1040,543
244.16400003246963,4095,0,953,511
244.3358000018634,4095,0,880,496
244.50660002185032,3913,0,803,465
244.6767000365071,2608,0,732,435
244.8683000402525,1635,1679,897,439
245.05740002496168,756,3217,1068,448
245.2449999982491,106,4095,1189,451
245.41950004640967,4095,0,1104,436
245.587500045076,4095,0,995,430
245.7560000475496,4095,0,895,414
245.92539999866858,3200,0,811,395
246.12550000892952,2253,0,766,384
246.43170001218095,1279,2297,967,400
246.62270001135767,511,3781,1135,419
246.79900001501665,0,4095,1226,431
246.97520001791418,0,4095,1295,443
247.15990002732724,0,4095,1357,462
247.33660003403202,0,4095,1410,482
247.5255000172183,0,4095,1469,507
247.71680001867935,1182,4095,1525,542
247.90539999958128,2252,1943,1317,528
248.09500004630536,3167,474,1134,507
248.2752000214532,4095,0,1009,497
248.44710004981607,4095,0,934,486
248.61750000854954,4095,0,859,465
248.79260000307113,4095,0,794,450
248.9697000128217,4095,0,733,429
249.14030003128573,2896,0,675,401
249.3228000239469,1948,748,755,399
249.5535000343807,4095,0,965,400
249.78910002391785,4095,0,878,396
249.97210002038628,4095,0,800,387
250.14120002742857,4095,0,738,380
250.31360000139102,4095,0,689,368
250.4843000206165,3767,0,642,355
250.65370002994314,2559,0,596,336
250.84970000898466,1594,1671,778,356
251.03850004961714,737,3162,946,371
251.2538000009954,89,4095,1090,387
251.5160000184551,0,4095,1173,400
251.69880001340061,0,4095,1249,422
251.8802999984473,0,4095,1322,442
252.05840001581237,0,4095,1382,468
252.24840000737458,835,4095,1451,497
252.44140002178028,1890,2812,1332,496
252.6308000087738,2861,872,1139,485
252.8003000188619,3787,0,989,477
252.97480000881478,4095,0,912,467
253.14510002499446,4095,0,845,455
253.3195000141859,4095,0,783,441
253.48790001589805,4095,0,724,419
253.65810003131628,3213,0,668,398
253.8485000259243,2256,0,655,381
254.0275999926962,4075,0,938,391
254.19820001116022,4095,0,854,389
254.36840002657846,4095,0,784,380
254.54560003709048,4095,0,719,368
254.71680000191554,4095,0,674,367
254.88640001276508,4095,0,631,350
255.06019999738783,2869,0,591,336
255.24780002888292,1927,900,695,341
255.45490003423765,1008,2774,882,362
255.64730004407465,320,4095,1062,378
255.8259000070393,0,4095,1139,390
256.0399000067264,0,4095,1221,409
256.2142999959178,0,4095,1293,432
256.39700004830956,0,4095,1358,456
256.58250000560656,448,4095,1424,487
256.77870004437864,1558,4095,1430,502
256.97550002951175,2559,1306,1200,489
257.1553000016138,3467,80,1021,478
257.33980000950396,4095,0,941,471
257.5121000409126,4095,0,867,460
257.6880000415258,4095,0,801,444
257.86060001701117,4095,0,746,427
258.0404000473209,3718,0,688,405
258.2406000001356,2769,1019,1058,405
258.4280000301078,3369,221,918,399
258.6009000078775,4073,0,829,394
258.7749999947846,4095,0,765,386
258.94750002771616,4095,0,718,382
259.11919999634847,4095,0,675,374
259.2947999946773,4095,0,634,366
259.4690000405535,3214,0,591,345
259.64280002517626,2263,0,590,336
259.83420002739877,1297,2306,812,357
260.0252000265755,539,3776,987,373
260.20670001162216,0,4095,1101,384
260.5390000389889,0,4095,1183,400
260.7607000390999,0,4095,1259,421
260.9669000376016,0,4095,1325,446
261.1868000240065,17,4095,1392,471
261.4123999956064,1200,4095,1457,500
261.6307000280358,2256,1943,1253,494
261.84079999802634,3162,483,1083,479
262.02940003713593,4095,0,960,471
262.2185000218451,4095,0,886,461
262.41680001839995,4095,0,819,447
262.6181000377983,300,4095,1427,448
262.8353000036441,1075,4095,1482,470
263.1062000291422,1772,3329,1399,470
263.3784000063315,2585,1338,1207,464
263.5798000264913,3475,115,1040,457
263.75590002862737,4095,0,949,454
263.93440004903823,4095,0,878,447
264.1189999994822,4095,0,811,432
264.309799997136,4095,0,752,417
264.5054000313394,3767,0,692,399
264.6845999988727,2559,0,640,370
264.8746000486426,1616,1744,821,384
265.07250004215166,766,3223,988,399
265.27750003151596,112,4095,1122,407
265.4678000253625,0,4095,1200,423
265.6581000192091,0,4095,1274,439
265.84820001153275,0,4095,1338,458
266.0573000321165,0,4095,1399,481
266.25610003247857,863,4095,1467,511
266.46090002031997,1904,2899,1359,510
266.64770004572347,0,4095,1616,485
266.83120004599914,0,4095,1628,497
267.0157999964431,0,4095,1645,511
267.1989999944344,0,4095,1657,535
267.38380000460893,0,4095,1675,557
267.5709000322968,0,4095,1697,582
267.78870000271127,1199,4095,1727,605
268.09200004208833,2240,1950,1488,587
268.32410000497475,3141,499,1289,570
268.5178000247106,4080,0,1146,557
268.70410004630685,4095,0,1055,540
268.88220000546426,4095,0,963,511
269.05830000760034,4095,0,884,491
269.235200015828,4095,0,814,464
269.41140001872554,2865,0,741,434
269.60060000419617,1936,875,829,430
269.79620003839955,1008,2743,993,435
270.001900033094,313,4095,1162,448
270.194300042931,0,4095,1232,451
270.3793999971822,0,4095,1299,464
270.56330000050366,3839,0,1152,437
270.7510000327602,2899,0,1033,423
270.9296999964863,2304,0,944,410
271.13530004862696,1594,1715,1066,422
271.3352999999188,743,3184,1202,437
271.5221000253223,82,4095,1310,449
271.70270000351593,0,4095,1364,464
271.88910002587363,0,4095,1419,481
272.0700000063516,0,4095,1465,500
272.25850004469976,0,4095,1515,528
272.50600000843406,851,4095,1571,556
272.71440002368763,1904,2878,1442,553
272.91470003547147,2879,887,1232,533
273.0945000075735,3817,0,1072,511
273.2694000005722,4095,0,983,505
273.4444999950938,4095,0,911,489
273.623300017789,4095,0,837,470
273.8010000321083,4095,0,775,447
273.9958000020124,3177,0,714,423
274.17059999424964,2241,0,693,403
274.3635000078939,1275,2303,901,418
274.59970000199974,498,3781,1073,430
274.78880004491657,4095,0,1043,421
274.97270004823804,4095,0,943,414
275.25750000495464,4095,0,854,400
275.53460001945496,4095,0,774,384
275.7357000373304,2862,0,709,368
275.9498000377789,1913,871,795,371
276.1587999993935,976,2765,971,389
276.37700003106147,302,4095,1137,405
276.5787999960594,0,4095,1214,418
276.786100002937,0,4095,1283,434
277.0182000240311,0,4095,1348,456
277.2289999993518,0,4095,1405,476
277.4624000303447,494,4095,1466,502
277.6975000160746,1566,4095,1491,529
277.91140001500025,2559,1397,1248,508
278.12170004472136,3473,166,1074,495
278.30740000354126,4095,0,976,487
278.49110000533983,4095,0,900,470
278.6770000238903,4095,0,832,454
278.8596000173129,4095,0,770,435
279.0556999971159,3727,0,708,413
279.33889999985695,2768,1051,1074,406
279.60599999642,3361,254,940,400
279.79870000854135,4048,0,841,397
279.9877999932505,4095,0,777,391
280.1734000095166,4095,0,729,385
280.3768000449054,4095,0,683,377
280.5649000220001,4095,0,641,366
280.75020003598183,3184,0,597,347
280.9302000096068,2246,0,589,337
281.13940003095195,1281,2256,811,354
281.3363000168465,528,3664,980,371
281.5266000106931,0,4095,1099,384
281.72020002966747,0,4095,1181,401
281.9057000451721,0,4095,1255,423
282.11660002125427,0,4095,1326,445
282.3201999999583,27,4095,1392,471
282.5303000281565,1209,4095,1458,501
282.7343000099063,2259,1856,1247,490
282.9357000300661,3173,449,1075,478
283.13080000225455,4095,0,960,474
283.31080003408715,4095,0,886,461
283.49709999747574,4095,0,817,448
283.7007000343874,283,4095,1428,444
283.9129000203684,1077,4095,1483,469
284.1267000185326,1763,3453,1409,474
284.34110002126545,2582,1366,1216,464
284.6508999937214,3469,159,1045,459
284.90460000466555,4095,0,951,453
285.1294000283815,4095,0,880,447
285.3140000370331,4095,0,813,433
285.501700011082,4095,0,752,419
285.69210000569,3745,0,694,400
285.8829000033438,2549,0,640,375
286.088099994231,1597,1733,820,386
286.28719999687746,738,3217,987,400
286.48760000942275,86,4095,1123,407
286.6803000215441,0,4095,1200,422
286.8763000005856,0,4095,1277,439
287.0857000234537,0,4095,1339,459
287.28119999868795,0,4095,1402,483
287.5128000159748,845,4095,1465,511
287.73120004916564,1890,2871,1356,510
287.92060003615916,0,4095,1616,485
288.11120003229007,0,4095,1628,499
288.30230003222823,0,4095,1643,511
288.4948000428267,0,4095,1656,533
288.6862000450492,0,4095,1675,555
288.8795000035316,0,4095,1697,581
289.11380004137754,1185,4095,1727,603
289.3225000007078,2229,1889,1484,586
289.52260001096874,3136,454,1281,569
289.71260000253096,4095,0,1141,558
289.9015000439249,4095,0,1047,541
290.11780000291765,4095,0,960,511
290.3049000306055,4095,0,885,494
290.4854000080377,4095,0,813,464
290.66790000069886,2859,0,743,433
290.86310003185645,1915,718,814,431
291.0682000219822,983,2723,989,436
291.37039999477565,291,4095,1158,447
291.5736000286415,0,4095,1229,452
291.7625000118278,0,4095,1297,464
291.9736000476405,0,4095,1361,480
292.18230000697076,2674,0,1168,446
292.40370000479743,2034,585,1163,447
292.6181000075303,1392,2159,1242,455
292.8398000076413,766,3216,1328,464
293.06340002221987,113,4095,1415,479
293.2736999937333,0,4095,1456,493
293.4755000169389,0,4095,1500,509
293.6834000283852,0,4095,1535,531
293.89309999533,0,4095,1582,555
294.1193000297062,877,4095,1620,576
294.3442999967374,1915,2861,1487,574
294.55809999490157,2900,874,1275,557
294.75470003671944,3853,0,1108,541
294.9568000040017,4095,0,1015,528
295.1854999992065,4095,0,935,501
295.3749000444077,4095,0,864,483
295.5636000260711,4095,0,798,461
295.7544000237249,3219,0,730,432
296.01829999592155,2256,0,710,411
296.29349999595433,1294,2315,913,423
296.5832000481896,4095,0,1001,413
296.771900029853,4095,0,910,406
296.988699992653,4095,0,827,396
297.1798999933526,4095,0,754,384
297.36500000581145,4095,0,702,370
297.55060002207756,2848,0,655,355
297.74780001025647,1919,694,729,358
297.9650000343099,985,2704,914,374
298.1766000157222,309,4095,1093,391
298.36620000423864,0,4095,1170,400
298.55890001636,0,4095,1250,422
298.7532000406645,0,4095,1318,443
298.9693999988958,0,4095,1377,466
299.1846000077203,453,4095,1443,496
299.4105000398122,1535,4095,1447,511
299.63510000379756,2559,1296,1215,497
299.8358000186272,3473,95,1041,485
300.0218000379391,4095,0,953,481
300.2097000135109,4095,0,878,464
300.4031000309624,4095,0,814,450
300.5993000115268,4095,0,753,432
300.79660000046715,3749,0,695,409
300.9937000460923,2559,0,642,383
301.2975000310689,3712,0,942,393
301.5663000405766,4095,0,863,388
301.7681000055745,4095,0,784,383
302.03960003564134,4095,0,721,371
302.2961000096984,4095,0,682,368
302.500499994494,4095,0,640,359
302.7113000280224,3152,0,595,339
302.904500043951,2224,0,592,336
303.11790003906935,1250,2285,814,354
303.3501000027172,489,3769,989,370
303.59630001476035,0,4095,1101,385
303.8115000235848,0,4095,1185,400
304.02040004264563,0,4095,1261,420
304.28139999276027,0,4095,1327,442
304.49410004075617,0,4095,1393,468
304.75260003004223,1179,4095,1458,502
304.9831000389531,2227,1978,1261,491
305.193500011228,3143,510,1088,481
305.38720003096387,4095,0,961,471
305.58290000772104,4095,0,893,464
305.7777000358328,4095,0,823,448
305.9843000373803,4095,0,763,432
306.1802000156604,4095,0,705,410
306.3985000480898,2445,1587,1114,406
306.60080001689494,3055,635,977,400
306.7907000076957,3667,0,850,395
306.975900020916,4095,0,787,391
307.1610000333749,4095,0,737,386
307.34870000742376,4095,0,691,382
307.5570000219159,4095,0,653,370
307.773900043685,3787,0,609,355
307.98979999963194,2589,0,571,336
308.2280000089668,1616,1639,751,353
308.4328999975696,767,3148,926,366
308.644600037951,117,4095,1072,379
308.84930002503097,0,4095,1155,398
309.0471000177786,0,4095,1232,416
309.2524000094272,0,4095,1302,436
309.5631000469439,0,4095,1367,463
310.0035000243224,857,4095,1437,494
310.4206999996677,1915,2800,1322,494
310.6918000266887,2889,865,1129,479
310.91350002679974,3841,0,976,469
311.17490003816783,4095,0,903,463
311.415100004524,4095,0,835,449
311.89850001828745,0,4095,1437,441
312.39560001995414,785,4095,1485,467
312.91360000614077,1483,4095,1520,491
313.46870004199445,2265,1991,1312,476
314.0100000309758,3175,510,1133,469
314.6305000409484,4095,0,1006,465
315.2391000185162,4095,0,926,457
315.7752000261098,4095,0,853,447
316.34300004225224,4095,0,788,432
316.6823000065051,4095,0,726,411
316.9973000185564,2866,0,671,386
317.2764000482857,1923,787,753,386
317.48440000228584,1005,2721,935,400
317.6986000034958,305,4095,1106,413
317.91120005073026,0,4095,1185,421
318.12180002452806,0,4095,1262,435
318.32140003098175,0,4095,1327,457
318.5913000488654,0,4095,1388,474
319.15110000409186,446,4095,1454,502
319.61589999264106,1535,4095,1463,528
320.1631000265479,125,4095,1638,496
320.5798999988474,0,4095,1648,506
320.96179999643937,0,4095,1659,528
321.31730002583936,0,4095,1669,541
321.52850000420585,0,4095,1683,560
321.7316000373103,0,4095,1702,581
321.94720004918054,819,4095,1729,607
322.19269999768585,1886,2836,1584,601
322.42480001877993,2866,848,1354,582
322.6254000328481,3792,0,1179,566
322.8238000301644,4095,0,1084,551
323.027300008107,4095,0,990,530
323.22310004383326,4095,0,912,505
323.415000049863,4095,0,838,478
323.6021000193432,3232,0,768,449
323.7907000002451,2263,0,722,429
323.9968999987468,1301,2229,929,434
324.2057000170462,538,3659,1097,445
324.40199999837205,0,4095,1197,448
324.6004999964498,0,4095,1267,458
324.7982000466436,0,4095,1333,470
324.9948000302538,2995,0,1161,446
325.20230003865436,2355,0,1037,433
325.4325000452809,1721,1397,1130,439
325.66130004124716,992,2739,1223,449
325.8734000264667,311,4095,1357,465
326.07110001845285,0,4095,1402,479
326.2871000333689,0,4095,1451,494
326.49060001131147,0,4095,1490,510
326.7390000401065,0,4095,1535,535
326.96440001018345,449,4095,1584,560
327.18910003313795,1535,4095,1581,575
327.4113000370562,2559,1308,1326,555
327.7096000383608,3458,102,1139,534
327.9674000223167,4095,0,1041,527
328.1960000167601,4095,0,955,506
328.4063000464812,4095,0,881,486
328.6109000327997,4095,0,815,464
328.8107000407763,3696,0,749,436
329.0392000344582,2544,0,686,409
329.2883000103757,1584,1723,861,418
329.55850003054366,4095,0,988,406
329.93420003913343,4095,0,899,401
330.14239999465644,4095,0,816,390
330.3534000297077,4095,0,750,384
330.6678000371903,4095,0,701,369
331.06180001050234,3167,0,648,354
331.4066000166349,2234,0,637,347
331.75569999730214,1254,2315,851,366
332.0932000060566,494,3765,1023,384
332.3637000285089,0,4095,1133,397
332.5726000475697,0,4095,1207,412
332.7763000270352,0,4095,1282,432
332.9818000202067,0,4095,1347,451
333.1864000065252,6,4095,1411,481
333.5215999977663,1195,4095,1472,509
333.9399000396952,2251,1940,1269,497
334.316199994646,3153,495,1098,487
334.67200002633035,4095,0,971,478
335.0819000042975,4095,0,899,464
335.54530004039407,4095,0,832,453
335.91550000710413,4095,0,773,434
336.25960000790656,4095,0,715,414
336.592500039842,2880,0,656,390
336.94970002397895,1931,861,752,389
337.2718000318855,4095,0,955,394
337.4640000401996,4095,0,866,386
337.66190003370866,4095,0,790,381
337.8577000112273,4095,0,723,369
338.18060002522543,4095,0,679,363
338.5005000163801,3744,0,631,348
338.7250000378117,2555,0,589,334
338.9326000469737,1595,1658,769,350
339.1416000085883,748,3136,939,368
339.3511000322178,91,4095,1086,382
339.547700015828,0,4095,1168,398
339.7471000207588,0,4095,1243,417
340.0215000147,0,4095,1312,435
340.3022999991663,0,4095,1375,464
340.5439000343904,873,4095,1442,496
340.79640003619716,1917,2835,1330,496
341.04130003834143,2890,875,1136,484
341.2627000361681,3841,0,980,473
341.46180003881454,4095,0,911,464
341.658900026232,4095,0,840,452
341.8775000027381,4095,0,779,434
342.0892000431195,4095,0,720,417
342.4102000426501,3205,0,666,393
342.8734000190161,3046,615,1006,391
343.28790003200993,3670,0,875,385
343.6002000235021,4095,0,803,383
343.94310001516715,4095,0,742,379
344.266600033734,4095,0,693,371
344.6624000207521,4095,0,656,366
345.11690004728734,4095,0,617,350
345.5898000393063,2839,0,576,335
346.12310002557933,1911,908,686,339
346.66040004231036,979,2794,875,359
347.25440002512187,304,4095,1050,377
348.02110004238784,0,4095,1134,389
348.93790003843606,0,4095,1214,401
349.5735000469722,0,4095,1284,431
350.2169999992475,0,4095,1351,453
350.93810001853853,458,4095,1415,483
351.59350000321865,1559,4095,1429,501
352.1868000389077,2587,1307,1199,489
352.7943000080995,3481,118,1023,474
353.6018000449985,4095,0,938,470
353.9279000251554,4095,0,865,458
354.2818000423722,4095,0,800,442
354.5161000220105,724,4095,1424,447
354.77020003600046,1455,4095,1451,464
354.9990000319667,2144,2101,1268,453
355.219200020656,2895,809,1110,447
355.42510001687333,3823,0,966,443
355.6321000214666,4095,0,896,441
355.8576000505127,4095,0,829,431
356.08600004343316,4095,0,770,419
356.3103000051342,4095,0,714,401
356.5242000040598,3186,0,658,383
356.7342000314966,2251,0,630,368
356.9537000148557,1277,2256,848,382
357.169300026726,511,3691,1019,396
357.37770004197955,0,4095,1131,403
357.59450000477955,0,4095,1210,421
357.8016000101343,0,4095,1280,438
358.0155000090599,0,4095,1344,458
358.229500008747,23,4095,1409,485
358.45290002180263,1203,4095,1471,523
358.795200008899,2251,1943,1267,498
359.0011000051163,0,4095,1596,479
359.2713000252843,0,4095,1616,496
359.7207000129856,0,4095,1630,510
360.14910001540557,0,4095,1647,531
360.38000002736226,0,4095,1666,557
360.60930002713576,482,4095,1695,578
360.83380004856735,1566,4095,1699,599
361.0616000369191,2597,1409,1425,578
361.3523000385612,3491,179,1232,561
361.76840000553057,4095,0,1116,549
362.1955999988131,4095,0,1020,533
362.600399996154,4095,0,935,506
363.0105000338517,4095,0,861,483
363.56930003967136,3742,0,789,454
364.1668000491336,2559,0,720,427
364.61340001551434,1603,1779,896,432
365.05530000431463,752,3235,1059,439
365.367199992761,97,4095,1183,447
365.62630004482344,0,4095,1254,461
365.8892000094056,0,4095,1323,469
366.15090002305806,0,4095,1379,485
366.4507000357844,2320,0,1171,441
366.77540000528097,1664,1489,1255,455
367.086400045082,1045,2638,1319,464
367.4054000293836,503,3757,1406,475
367.7177000208758,0,4095,1461,487
368.0110000423156,0,4095,1500,500
368.4379000333138,0,4095,1534,527
368.95160004496574,0,4095,1575,542
369.3557000369765,0,4095,1611,564
369.79650001740083,1200,4095,1649,591
370.2257000259124,2252,1920,1422,572
370.6586000043899,3163,469,1227,557
371.05010001687333,4095,0,1094,540
371.42929999390617,4095,0,1001,527
371.8025000416674,4095,0,921,499
372.1761000342667,4095,0,849,479
372.5304999970831,4095,0,782,451
372.8980000014417,2846,0,718,426
373.28790000174195,1920,919,809,420
373.713500041049,983,2801,982,431
374.1538000176661,4095,0,1022,419
374.49080002261326,4095,0,924,411
374.7946000075899,4095,0,839,401
375.0831999932416,4095,0,769,388
375.37650001468137,3666,0,709,371
375.7313000387512,2530,0,654,353
376.1207000352442,1579,1686,827,368
376.4868000289425,723,3191,992,385
376.8526000203565,74,4095,1133,400
377.20839999383315,0,4095,1206,415
377.56330001866445,0,4095,1279,432
377.91520002065226,0,4095,1343,451
378.2988000311889,0,4095,1406,479
378.66220000432804,838,4095,1470,509
379.04260004870594,1909,2759,1345,506
379.3751000193879,2880,827,1151,494
379.6763000427745,3807,0,995,481
379.9791000201367,4095,0,922,471
380.3408000385389,4095,0,852,462
380.7424000115134,4095,0,788,442
381.0380000504665,4095,0,731,420
381.3190000364557,3169,0,674,400
381.5824000048451,2238,0,660,384
381.84250000631437,4095,0,939,387
382.1108000120148,4095,0,855,384
382.3487000190653,4095,0,784,376
382.56390002788976,4095,0,719,368
382.7900000032969,4095,0,676,363
382.99980002921075,4095,0,631,351
383.2067000330426,2889,0,591,336
383.4260000148788,1936,911,697,341
383.6633000173606,1020,2790,883,357
383.88630002737045,335,4095,1059,378
384.10530000692233,0,4095,1142,390
384.3139000236988,0,4095,1219,407
384.52160003362224,0,4095,1291,430
384.790200041607,0,4095,1356,455
385.1130999973975,528,4095,1424,487
385.4204000090249,1580,4095,1434,501
385.7156000449322,2597,1315,1200,487
385.99690003320575,3500,98,1023,476
386.259000049904,4095,0,941,469
386.50100002996624,4095,0,866,459
386.70170004479587,4095,0,802,441
386.9000000413507,4095,0,743,427
387.10220000939444,3684,0,688,400
387.32670003082603,2772,1019,1054,401
387.54080003127456,3367,223,914,398
387.7417000476271,4051,0,823,387
387.9483000491746,4095,0,762,384
388.1614000420086,4095,0,714,379
388.3592000347562,4095,0,671,371
388.5584000381641,4095,0,631,362
388.7566000339575,3176,0,589,346
388.9556000358425,2240,0,581,336
389.1706000431441,1274,2285,803,352
389.3909000325948,511,3700,976,369
389.59820003947243,0,4095,1091,383
389.8011000128463,0,4095,1174,400
390.0076000136323,0,4095,1251,421
390.21590002812445,0,4095,1319,441
390.42330003576353,1,4095,1390,470
390.6487000058405,1203,4095,1454,499
390.8716000150889,2277,1866,1243,485
391.11260004574433,3169,446,1072,476
391.317900037393,4095,0,953,467
391.5217000176199,4095,0,880,461
391.7338000028394,4095,0,816,446
391.9692000490613,306,4095,1424,441
392.21030002227053,1093,4095,1476,467
392.4478000262752,1795,3280,1390,467
392.67840003594756,2592,1307,1200,461
392.9018000490032,3485,109,1023,451
393.14420003211126,4095,0,942,449
393.3545000036247,4095,0,870,443
393.55999999679625,4095,0,803,431
393.75940000172704,4095,0,745,415
393.9638000447303,3758,0,688,395
394.1666000173427,2556,0,637,370
394.3870000075549,1600,1706,815,385
394.6017000125721,748,3168,976,397
394.8130000499077,78,4095,1117,402
395.0212000054307,0,4095,1197,418
395.23110003210604,0,4095,1268,437
395.56900004390627,0,4095,1332,455
395.86730004521087,0,4095,1396,479
396.1704000248574,839,4095,1461,509
396.40890003647655,1901,2801,1343,507
396.64200000697747,0,4095,1609,481
396.8532000435516,0,4095,1622,496
397.0694000017829,0,4095,1639,511
397.2814000444487,0,4095,1651,529
397.4945000372827,0,4095,1667,556
397.70120003959164,2,4095,1694,578
397.9316000477411,1201,4095,1723,603
398.1615999946371,2279,1907,1483,590
398.38810003129765,3183,480,1283,567
398.6039000446908,4095,0,1142,558
398.8190999953076,4095,0,1047,539
399.02620000066236,4095,0,959,511
399.23770003952086,4095,0,881,495
399.4426000281237,4095,0,809,464
399.6494000311941,2853,0,739,436
399.87060002749786,1906,885,823,430
400.0882999971509,982,2769,996,438
400.3132000216283,304,4095,1159,446
400.5259000114165,0,4095,1232,454
400.76310001313686,0,4095,1297,464
401.0103000327945,0,4095,1360,479
401.338100025896,2662,0,1168,443
401.5682000317611,2026,545,1155,443
401.8002999946475,1391,2151,1235,457
402.02989999670535,752,3218,1322,464
402.24620001390576,93,4095,1413,477
402.4679000140168,0,4095,1456,491
402.684600034263,0,4095,1494,507
402.90380001533777,0,4095,1531,528
403.12150004319847,0,4095,1579,553
403.351700049825,880,4095,1617,576
403.58870005002245,1938,2827,1481,569
403.83640001527965,2925,880,1270,551
404.0612000389956,3870,0,1104,535
404.2839000467211,4095,0,1013,527
404.49280000757426,4095,0,933,497
404.70100002130494,4095,0,860,479
404.9391000298783,4095,0,795,454
405.15940001932904,3199,0,723,431
405.3653000155464,2247,7,718,411
405.5897000362165,1285,2352,918,421
405.7999000069685,4095,0,998,414
406.0061000054702,4095,0,905,406
406.21180000016466,4095,0,826,397
406.4178999979049,4095,0,756,383
406.6189000150189,4095,0,699,369
406.8208000389859,2835,0,647,354
407.0633000228554,1905,860,741,363
407.29709999868646,985,2753,925,378
407.53100003348663,306,4095,1094,393
407.75250003207475,0,4095,1171,402
407.97110000858083,0,4095,1249,423
408.1908999942243,0,4095,1316,446
408.4088000236079,0,4095,1379,464
408.64600002532825,464,4095,1442,496
408.89800002332777,1563,4095,1447,511
409.13750004256144,2596,1267,1211,496
409.41590000875294,3477,80,1040,485
409.63040001224726,4095,0,950,479
409.84830004163086,4095,0,878,464
410.06170003674924,4095,0,813,449
410.3002000483684,4095,0,753,430
410.5184000218287,3653,0,691,405
410.7390000135638,2532,0,641,382
410.95320001477376,3774,0,934,389
411.28759999992326,4095,0,853,386
411.51890001492575,4095,0,784,382
411.7513000383042,4095,0,720,373
412.01100003672764,4095,0,676,368
412.2476000338793,4095,0,639,358
412.481100007426,3211,0,593,341
412.7248000004329,2241,0,592,335
413.09770004590973,1280,2313,815,351
413.48670003935695,527,3777,991,369
413.7163000414148,0,4095,1102,384
413.9474999974482,0,4095,1182,400
414.1904000425711,0,4095,1258,421
414.4365999964066,0,4095,1325,445
414.67010002816096,22,4095,1392,470
414.9164000409655,1219,4095,1459,502
415.1719000074081,2283,1933,1254,493
415.42350000236183,3200,461,1079,478
415.6677999999374,4095,0,959,471
415.89520004345104,4095,0,885,461
416.12850001547486,4095,0,817,446
416.34480003267527,4095,0,759,431
416.5593000361696,4095,0,702,406
416.8265000334941,2463,1558,1104,404
417.0554000302218,3071,621,973,400
417.2729999991134,3705,0,848,395
417.51870000734925,4095,0,784,390
417.9959000321105,4095,0,733,387
418.22819999651983,4095,0,688,378
418.44410001067445,4095,0,650,368
418.66000002482906,3711,0,604,353
418.88519999338314,2558,0,567,336
419.12920004688203,1599,1727,754,351
419.36490003718063,752,3206,930,368
419.6013000328094,79,4095,1074,384
419.8282000143081,0,4095,1158,398
420.05860002245754,0,4095,1233,416
420.3024000162259,0,4095,1301,437
420.53020000457764,0,4095,1367,464
420.7633000332862,838,4095,1436,494
421.0070000262931,1920,2830,1324,495
421.23880004510283,2891,839,1123,481
421.45870003150776,3822,0,976,469
421.66849999921396,4095,0,902,464
421.8811000464484,4095,0,835,448
422.1203000051901,4095,0,774,435
422.36660001799464,1102,4095,1414,441
422.60230000829324,1824,3233,1331,443
422.8578000329435,2510,1489,1165,438
423.1011000229046,3200,466,1017,431
423.33240003790706,4095,0,909,430
423.54640003759414,4095,0,845,425
423.7612000433728,4095,0,784,415
423.9752000430599,4095,0,726,401
424.1934000165202,4095,0,675,385
424.40680001163855,2851,0,624,367
424.6296000201255,1913,885,724,368
424.85400004079565,978,2772,909,383
425.091200042516,302,4095,1082,400
425.34680000972,0,4095,1163,407
425.58840004494414,0,4095,1236,427
425.8419999969192,0,4095,1305,444
426.1044000159018,0,4095,1367,467
426.3996999943629,499,4095,1434,496
426.76689999643713,1578,4095,1439,511
427.14990000240505,2607,1291,1205,496
427.46050003916025,0,4095,1584,477
427.7222999953665,0,4095,1599,496
427.98610002500936,0,4095,1618,511
428.29640000127256,0,4095,1638,532
428.6856999970041,0,4095,1664,558
429.11210004240274,862,4095,1695,585
429.62390003958717,1936,2841,1535,579
430.1969000371173,2917,871,1328,565
430.7725999969989,3873,0,1155,549
431.2447000411339,4095,0,1061,538
431.78500002250075,4095,0,971,511
432.20690003363416,4095,0,895,493
432.436500035692,4095,0,822,467
432.6676000491716,3167,0,752,439
432.8953000367619,2230,0,722,422
433.14030003966764,1264,2311,928,430
433.5075000417419,511,3766,1095,438
433.91910003265366,0,4095,1191,443
434.32530004065484,0,4095,1263,458
434.78850001702085,0,4095,1328,467
435.44790003215894,0,4095,1390,489
435.9534000395797,2001,668,1296,460
436.42530002398416,1331,2233,1357,471
436.8926000315696,794,3136,1417,480
437.3847999959253,304,4095,1493,494
437.67519999528304,0,4095,1520,505
437.9707000334747,0,4095,1557,526
438.2293000235222,0,4095,1587,543
438.49940004292876,0,4095,1616,561
438.78700002096593,484,4095,1651,583
439.0838000108488,1599,4095,1653,595
439.3707000417635,2620,1363,1389,577
439.6134000271559,3535,135,1195,559
439.85290004638955,4095,0,1088,548
440.1001000078395,4095,0,995,528
440.3335000388324,4095,0,913,499
440.6279000104405,4095,0,845,478
440.9237999934703,3742,0,775,450
441.2253000191413,2545,0,706,420
441.5331000345759,1587,1783,883,431
441.81750004645437,4095,0,999,413
442.1017999993637,4095,0,908,410
442.6054000505246,4095,0,826,395
443.21330002276227,4095,0,757,386
443.63720004912466,4095,0,705,374
444.0312000224367,3187,0,655,359
444.6463000494987,2250,0,640,352
445.27190004009753,1281,2326,857,368
446.5265000471845,511,3810,1035,384
447.48100003926083,0,4095,1135,399
448.87520000338554,0,4095,1215,413
449.9897000496276,0,4095,1285,433
450.2589000039734,0,4095,1347,454
450.4943000501953,0,4095,1414,482
450.7526000379585,1221,4095,1477,511
451.00170001387596,2291,1936,1272,496
451.32530003320426,3193,466,1095,485
451.7970000160858,4095,0,973,479
452.37020001513883,4095,0,897,466
453.19780003046617,4095,0,831,451
453.7790000322275,4095,0,770,435
454.486700007692,4095,0,714,415
455.6379000423476,2826,0,656,389
456.3247000332922,1891,880,751,388
456.6933000460267,4095,0,947,395
457.05250004539266,4095,0,864,390
457.33390003442764,4095,0,786,379
457.58260000729933,4095,0,718,368
457.82640000106767,4095,0,677,365
458.06770003400743,3637,0,627,349
458.33049999782816,2524,0,586,333
458.6237000185065,1561,1791,778,349
458.8674000115134,721,3247,947,368
459.10550002008677,62,4095,1088,382
459.48180003324524,0,4095,1168,399
460.2208000142127,0,4095,1245,415
460.5030000093393,0,4095,1311,435
460.7852000044659,0,4095,1375,465
461.0810000449419,838,4095,1442,495
461.42110001528636,1913,2827,1329,496
463.16620003199205,2881,877,1136,483
464.0829000272788,3825,0,981,473
465.32509999815375,4095,0,909,464
467.1105000306852,4095,0,839,449
468.14950002590194,4095,0,778,434
469.2674000398256,4095,0,720,417
471.2011000374332,3165,0,662,394
472.25520003121346,3101,528,991,393
473.27640000730753,3749,0,869,387
475.24590004468337,4095,0,797,384
476.1840000282973,4095,0,737,374
477.19110001344234,4095,0,691,369
479.2214000481181,4095,0,652,362
480.34330003429204,4095,0,611,350
481.0634000459686,2847,0,573,336
483.0510000465438,1908,714,662,339
484.1172000160441,976,2688,854,356
486.11240001628175,302,4095,1040,372
487.5865000067279,0,4095,1125,388
489.100500009954,0,4095,1205,404
490.14579999493435,0,4095,1277,431
491.183300036937,0,4095,1344,453
493.26110002584755,496,4095,1410,480
495.0957000255585,1598,4095,1415,496
496.1460000486113,2624,1286,1187,483
498.20790003286675,3527,85,1010,472
499.3362000095658,4095,0,927,464
500.3617000184022,4095,0,859,454
502.03329999931157,4095,0,793,438
503.27260000631213,730,4095,1417,443
505.1535000093281,1455,4095,1470,464
506.17020000936463,2153,2230,1282,453
508.12100002076477,2897,869,1120,448
509.22430003993213,3840,0,970,443
511.0100000165403,4095,0,899,441
512.2135000419803,4095,0,832,432
513.1677000317723,4095,0,769,419
515.0404000305571,4095,0,717,401
516.1535000079311,3169,0,660,384
517.1182000194676,2226,0,656,369
519.0426000044681,1245,2345,865,384
520.3044000081718,498,3805,1040,400
522.1311000059359,0,4095,1137,407
523.1972000328824,0,4095,1218,423
524.2751000332646,0,4095,1289,437
526.0644000372849,0,4095,1347,462
527.3308000178076,48,4095,1415,487
529.1658000205643,1216,4095,1475,511
531.1790000414476,2278,1846,1264,501
532.303900050465,3195,454,1088,487
534.1474000015296,0,4095,1535,461
535.3399000014178,0,4095,1574,479
536.3906000275165,0,4095,1595,496
538.0988999968395,0,4095,1617,525
539.2830000491813,491,4095,1650,552
541.4051000261679,1582,4095,1632,565
543.0771000101231,2607,1312,1374,551
544.317800027784,3509,88,1178,531
545.3907000483014,4095,0,1078,527
547.211299999617,4095,0,987,506
548.2716000406072,4095,0,908,489
549.6379000251181,4095,0,835,465
551.1667000246234,3695,0,766,443
552.3417000076734,2524,0,702,412
554.0790000231937,1566,1785,880,422
555.234500032384,720,3246,1041,432
557.1392000420019,66,4095,1168,435
558.5810000193305,0,4095,1237,448
559.36539999675,0,4095,1308,461
561.2705000094138,0,4095,1370,477
562.2205000254326,2318,0,1168,441
564.2028000438586,1648,1535,1251,454
565.333400038071,1062,2666,1313,464
567.3021000111476,509,3833,1407,477
568.3105000061914,0,4095,1457,491
570.1169000240043,0,4095,1495,501
571.1062000482343,0,4095,1534,526
573.1218000291847,0,4095,1573,541
574.2528000264429,58,4095,1610,563
576.1101000243798,1233,4095,1648,591
577.6046999963,2279,1904,1414,570
579.1036000009626,3186,462,1222,554
580.3572000004351,4095,0,1091,539
582.1406000177376,4095,0,998,525
583.0659000203013,4095,0,919,498
584.2552999965847,4095,0,847,477
585.7181000174023,4095,0,782,450
587.1777000138536,2837,0,716,426
588.133100012783,1891,859,801,418
590.4245999990962,953,2768,975,427
591.5959000121802,4095,0,1013,414
592.6104999962263,4095,0,919,402
594.2814000300132,4095,0,833,393
595.5265000229701,4095,0,763,382
596.6239999979734,3703,0,705,368
598.217900027521,2543,0,647,350
599.4050000444986,1584,1738,826,368
601.1996000306681,733,3230,994,384
602.2680000169203,77,4095,1130,395
603.4349999972619,0,4095,1203,410
605.1387000479735,0,4095,1278,431
606.1926000402309,0,4095,1342,448
608.1057999981567,0,4095,1402,474
609.1569000273012,870,4095,1467,505
611.1832000315189,1936,2828,1351,501
612.2251000488177,2911,876,1150,492
614.1321000177413,3856,0,998,479
615.3271000366658,4095,0,923,469
616.2413000129163,4095,0,851,454
618.1212000083178,4095,0,787,440
619.1748999990523,4095,0,730,421
620.2580000390299,3179,0,673,399
622.2113000112586,2231,55,678,384
623.3889000141062,4095,0,940,394
624.1912000114098,4095,0,853,389
626.0945000103675,4095,0,784,379
627.1228000405245,4095,0,719,368
628.1971000134945,4095,0,673,365
629.3403000454418,4095,0,632,350
631.1345000285655,2854,0,587,336
632.1728000184521,1898,939,700,341
634.1066000168212,982,2798,882,359
635.1860000286251,290,4095,1059,375
637.0672000339255,0,4095,1140,389
638.1549000507221,0,4095,1218,405
639.1624000389129,0,4095,1291,431
641.1007000133395,0,4095,1356,454
642.2648000298068,496,4095,1423,483
644.1881000064313,1587,4095,1439,503
646.0381000069901,2608,1334,1203,490
647.1760999993421,3490,123,1035,475
648.9879000000656,4095,0,944,468
650.1354000065476,4095,0,871,458
651.3230000273325,4095,0,803,443
652.3701000260189,4095,0,745,426
654.1535000433214,3664,0,687,402
655.3098000003956,2785,981,1046,395
657.2528000106104,3376,192,911,388
658.713600016199,4060,0,819,384
659.9582000053488,4095,0,756,381
661.2024000496604,4095,0,705,374
662.2690000222065,4095,0,668,370
663.2439999957569,4095,0,625,357
665.1460000430234,3146,0,586,337
666.1840000306256,2219,0,579,333
667.2843000269495,1254,2321,807,349
669.3352000438608,502,3762,978,368
670.3887000330724,0,4095,1092,380
672.1251000417396,0,4095,1173,400
673.2414000434801,0,4095,1250,419
675.11100001866,0,4095,1320,441
676.1767000425607,23,4095,1389,468
678.1482000369579,1225,4095,1453,498
679.2480000294745,2288,1869,1239,487
681.0665000230074,3184,453,1071,475
682.2095999959856,4095,0,954,467
683.1799999927171,4095,0,879,458
685.0811000331305,4095,0,815,443
686.2555000116117,452,4095,1424,437
688.1833000225015,1193,4095,1473,464
690.067200048361,1883,2836,1344,463
691.1561000160873,2610,1254,1177,450
693.0592000135221,3502,64,1007,446
694.1701000323519,4095,0,928,447
695.181799994316,4095,0,855,433
697.0545999938622,4095,0,793,427
698.19040002767,4095,0,735,407
699.1640000487678,3659,0,681,387
701.0406000190414,2525,0,627,368
702.2019000141881,1535,1779,815,379
704.0293000172824,710,3259,978,395
705.2657000022009,50,4095,1114,401
706.434799998533,0,4095,1194,417
708.1737000262365,0,4095,1267,435
709.1942999977618,0,4095,1329,453
711.038000008557,0,4095,1395,478
711.9967000326142,866,4095,1459,506
714.0636999974959,1936,2795,1339,503
715.1793999946676,0,4095,1606,476
717.0728000346571,0,4095,1620,492
718.1031000218354,0,4095,1635,506
719.2079999949783,0,4095,1649,528
721.166200004518,0,4095,1669,549
722.3247000365518,32,4095,1695,576
724.1795000154525,1230,4095,1723,598
726.1171000427566,2295,1845,1474,580
727.2085000295192,3186,445,1275,564
728.3483000355773,4095,0,1124,551
730.1667000283487,4095,0,1043,535
731.2837000354193,4095,0,958,511
733.1542000174522,4095,0,880,490
734.1386000043713,4095,0,811,463
735.1564000127837,2858,0,737,432
737.237700028345,1903,889,821,430
738.260000012815,987,2778,994,432
740.171300014481,303,4095,1159,446
741.182200028561,0,4095,1231,451
742.3212000285275,0,4095,1296,464
744.108300015796,0,4095,1360,479
745.2507000416517,2659,0,1165,439
747.1968000172637,2015,686,1168,444
748.3900000224821,1359,2208,1242,455
750.1862000208348,721,3278,1330,464
751.3713000225835,70,4095,1418,477
753.0944000463933,0,4095,1456,491
754.080300044734,0,4095,1497,503
756.1576000298373,0,4095,1535,528
757.2058000368997,0,4095,1579,551
759.168500022497,867,4095,1621,575
760.4184999945574,1936,2779,1478,567
762.2040000278503,2903,839,1264,550
763.2917000446469,3825,0,1104,535
765.1463000220247,4095,0,1014,511
766.0710000200197,4095,0,932,499
767.1716000186279,4095,0,861,478
768.3306999970227,4095,0,790,459
770.3268000041135,3120,0,723,430
771.1598000023514,2192,0,704,410
773.051000025589,1219,2313,909,419
774.2030000081286,4095,0,994,407
775.1867000479251,4095,0,901,402
777.1340000326745,4095,0,819,392
778.0230000498705,4095,0,752,379
779.3778000050224,4095,0,695,368
780.3492000093684,2833,0,644,351
782.3053000029176,1877,836,736,357
783.25209999457,944,2765,919,374
785.2907000342384,277,4095,1090,389
786.4206000231206,0,4095,1169,401
788.4188000462018,0,4095,1248,420
789.6173000335693,0,4095,1313,443
790.6850000144914,0,4095,1376,464
792.606600036379,479,4095,1442,495
794.1919000004418,1577,4095,1439,508
795.1223000418395,2615,1278,1209,496
797.2858000430278,3504,80,1038,480
798.4301000251435,4095,0,947,474
799.3936000275426,4095,0,877,463
801.1157000437379,4095,0,809,447
802.8330000233836,4095,0,750,429
803.926800028421,3683,0,691,403
805.1725000259466,2541,0,639,381
806.2525000423193,3773,0,932,387
807.2130000218749,4095,0,849,386
809.1156000155024,4095,0,782,378
810.3962000459433,4095,0,719,370
811.5339000360109,4095,0,674,367
812.6011000131257,4095,0,637,354
814.2210000078194,3167,0,592,336
815.2771000168286,2215,0,592,331
817.1797000104561,1261,2343,816,352
818.211900012102,489,3834,991,370
819.2627000389621,0,4095,1101,384
821.2381000048481,0,4095,1178,400
822.2499000257812,0,4095,1257,425
824.2813000106253,0,4095,1327,443
825.444600021001,33,4095,1392,469
827.2255000192672,1228,4095,1456,497
828.3673000405543,2285,1889,1249,490
830.1724000484683,3190,464,1074,477
831.2450000084937,4095,0,956,468
833.1344000180252,4095,0,882,461
834.1767000383697,4095,0,816,445
835.2769000339322,4095,0,757,430
837.1675999951549,4095,0,695,409
838.03149999585,2832,0,646,382
839.2090999986976,3397,185,948,387
841.3706000428647,4095,0,854,385
842.056900030002,4095,0,784,378
843.3714000275359,4095,0,720,371
844.2885000258684,4095,0,682,368
846.1431000032462,4095,0,642,356
847.2376000136137,3687,0,595,341
848.4432999975979,2519,0,560,330
850.2971000270918,1555,1799,754,345
851.3055000221357,720,3259,929,363
853.0903000500984,75,4095,1072,378
854.3087000143714,0,4095,1153,391
856.1200000112876,0,4095,1230,413
857.3337999987416,0,4095,1298,433
858.4593000123277,0,4095,1365,462
860.1658000261523,883,4095,1431,492
862.1095000416972,1937,2689,1308,487
863.2067000144161,2902,797,1114,477
864.9785000015981,3841,0,970,467
866.2105000112206,4095,0,896,462
867.2563000000082,4095,0,827,448
868.2645999942906,4095,0,771,432
870.083500049077,4095,0,713,413
871.2433000328019,2207,2058,1151,406
873.2582000084221,2848,927,1015,402
874.409000040032,3437,164,883,397
876.1027000145987,4095,0,803,390
877.2076000459492,4095,0,752,387
878.3656000159681,4095,0,702,382
880.0722000305541,4095,0,661,374
881.0434000333771,4095,0,620,358
882.2115000220947,2833,0,578,339
884.2086000367999,1899,951,689,347
885.2276999969035,966,2834,880,365
887.2562000178732,280,4095,1054,380
888.1248999969102,0,4095,1136,393
890.1142000104301,0,4095,1215,410
891.305299999658,0,4095,1287,431
892.425500031095,0,4095,1351,459
894.2782999947667,508,4095,1421,484
896.0745999938808,1600,4095,1430,502
897.1085000084713,2621,1308,1198,489
899.1737000178546,3520,88,1019,474
900.1388000324368,0,4095,1520,457
901.2831000145525,0,4095,1535,477
903.1477000098675,0,4095,1578,496
904.208899999503,0,4095,1605,511
906.139200029429,900,4095,1645,555
907.4135000118986,1967,2673,1487,550
909.1611000476405,2935,811,1277,535
910.266800026875,3903,0,1112,523
912.11239999393,4095,0,1022,505
913.2743999944068,4095,0,938,492
914.1427000286058,4095,0,865,469
916.1089000408538,4095,0,796,449
917.0946000376716,3151,0,726,424
918.2506000506692,2208,0,707,405
920.206600043457,1243,2314,912,415
921.272500010673,480,3765,1081,429
923.133600037545,0,4095,1179,432
924.2559000267647,0,4095,1253,448
926.026200002525,0,4095,1319,460
927.2759000305086,0,4095,1380,480
928.2697000307962,42,4095,1439,505
930.1347000291571,1233,4095,1501,536
931.3738000346348,349,4095,1648,496
933.0908000119962,0,4095,1653,508
934.1529000084847,0,4095,1661,527
936.173600028269,0,4095,1671,537
937.1288000256754,0,4095,1685,560
939.110100036487,0,4095,1703,576
940.2666999958456,528,4095,1726,601
942.3494000220671,1614,4095,1697,614
943.3803000138141,2630,1302,1429,592
945.2672000043094,3548,82,1230,573
946.1746000451967,4095,0,1123,560
948.0991000309587,4095,0,1023,541
949.6603000443429,4095,0,944,511
950.4330000490882,4095,0,867,490
952.1478000096977,3684,0,790,462
953.1582000199705,2519,0,721,431
954.1728000040166,1558,1822,905,437
956.1491000349633,718,3297,1070,446
957.204400037881,74,4095,1187,450
959.1494000051171,0,4095,1260,460
960.155900043901,4095,0,1136,437
962.0774000068195,3866,0,1013,422
963.0475000012666,2918,0,909,405
964.1756000346504,2204,0,863,398
966.2518000113778,1239,2347,1050,418
967.1855000196956,490,3820,1200,432
969.1806000191718,0,4095,1281,441
970.1941999956034,0,4095,1343,457
972.1209999988787,0,4095,1397,471
973.2934000203386,0,4095,1449,495
974.2672000429593,57,4095,1501,523
976.1819000123069,1247,4095,1559,554
978.0532000004314,2298,1818,1328,531
979.1684999945574,3201,391,1143,511
981.1274000094272,4095,0,1023,503
982.2676000185311,4095,0,944,492
983.2052999990992,4095,0,869,470
985.049800015986,4095,0,802,453
986.1547000473365,4095,0,738,430
987.3032000032254,2814,0,682,402
989.0672000474297,1881,956,784,402
990.2842000010423,4095,0,963,400
991.4930000086315,4095,0,880,394
993.1734999991022,4095,0,800,383
994.3784000352025,4095,0,734,373
995.5344000482,4095,0,688,367
997.1591000212356,3701,0,639,351
998.2989000272937,2530,0,592,335
999.4016000418924,1563,1837,787,355
1001.4227000065148,727,3281,960,370
1002.6337000308558,80,4095,1094,384
1004.0909000090323,0,4095,1173,399
1005.3296000114642,0,4095,1251,420
1007.1354000247084,0,4095,1318,440
1008.2235000445507,0,4095,1385,469
1010.0770000135526,894,4095,1451,496
1011.275900003966,1951,2703,1323,496
1013.1637000013143,2897,807,1132,482
1014.2999000381678,3849,0,978,473
1015.2532000211067,4095,0,908,464
1017.215900006704,4095,0,838,451
1018.3308999985456,4095,0,778,435
1019.2664000205696,4095,0,719,416
1021.1194000439718,3152,0,665,395
1022.2147000022233,2205,0,645,375
1023.2353000319563,4095,0,930,384
1024.2138000321575,4095,0,848,382
1026.149500044994,4095,0,770,373
1027.2331000305712,4095,0,711,366
1028.2656000345014,4095,0,670,359
1030.109600047581,4095,0,625,347
1031.1886999988928,2832,0,584,333
1032.2958000469953,1885,912,690,338
1034.3891000375152,963,2793,880,359
1035.3250000043772,269,4095,1054,374
1037.2388000250794,0,4095,1138,387
1038.2494000368752,0,4095,1216,406
1040.1242999942042,0,4095,1287,431
1041.2035000044852,0,4095,1351,454
1043.0078000063077,511,4095,1419,483
1044.3558000260964,1599,4095,1424,499
1046.2356000207365,2624,1294,1194,483
1047.7287000394426,3520,86,1018,473
1049.4451000122353,4095,0,931,465
1050.7633000379428,4095,0,863,454
1051.8749000038952,4095,0,795,439
1053.0978000024334,4095,0,739,422
1054.4095000368543,3643,0,681,399
1055.6480000377633,2828,1023,1049,394
1057.2984000318684,3429,229,912,389
1058.3549000439234,4095,0,819,384
1060.2047000429593,4095,0,755,379
1061.121600039769,4095,0,707,374
1062.1508000185713,4095,0,667,369
1063.382400025148,4095,0,625,357
1065.2160000172444,3137,0,586,339
1066.3668000488542,2198,11,593,333
1068.209899996873,1221,2358,815,352
1069.292200030759,473,3849,990,371
1071.2274000397883,0,4095,1098,383
1072.1750000375323,0,4095,1179,400
1073.4167000046,0,4095,1255,419
1075.1436999998987,0,4095,1323,444
1076.2951000360772,43,4095,1391,468
1078.2895000302233,1243,4095,1456,499
1080.1279000006616,2294,1851,1243,486
1081.1862000264227,3200,430,1071,476
1082.3590999934822,4095,0,955,467
1084.3007999937981,4095,0,880,462
1085.534900019411,0,4095,1447,441
1086.1102000344545,0,4095,1489,464
1088.1441000383347,783,4095,1531,491
1090.1641999953426,1601,4075,1503,499
1091.397500014864,2627,1258,1266,492
1093.2692000060342,3549,47,1086,481
1094.4328000186943,4095,0,993,479
1095.318200008478,4095,0,913,465
1097.2224000142887,4095,0,845,448
1098.2597999973223,4095,0,781,432
1099.3808000348508,3698,0,719,410
1101.1833000229672,2525,0,659,385
1102.6240999926813,1561,1745,839,397
1104.1723000234924,727,3210,1003,407
1105.2260000142269,80,4095,1136,416
1107.083800015971,0,4095,1211,428
1108.2366000046022,0,4095,1283,443
1109.330300008878,0,4095,1344,464
1111.2349000177346,0,4095,1407,487
1112.390200025402,882,4095,1469,511
1114.2655000439845,1954,2623,1331,509
1115.2354000369087,0,4095,1612,478
1117.2007000423037,0,4095,1623,495
1118.2404000428505,0,4095,1641,511
1120.119400031399,0,4095,1651,529
1121.1822000332177,0,4095,1674,553
1122.1515000215732,36,4095,1695,576
1124.2744000046514,1232,4095,1725,603
1126.1710000107996,2301,1853,1477,583
1127.2996000479907,3190,459,1280,567
1129.1108000441454,4095,0,1140,555
1130.2609000122175,4095,0,1043,537
1131.3243000186048,4095,0,958,511
1133.1558999954723,4095,0,880,491
1134.3775000423193,4095,0,810,464
1135.1078000152484,2826,0,738,432
1137.135200027842,1878,1037,837,431
1138.1326999980956,966,2822,1003,433
1140.1441000052728,286,4095,1162,445
1141.2045000470243,0,4095,1234,453
1143.099400040228,0,4095,1299,464
1144.3147000391036,3889,0,1146,437
1146.0226000053808,2896,0,1023,427
1147.0200000330806,2286,0,943,413
1148.094400006812,1556,1791,1071,422
1150.1531000249088,721,3236,1205,437
1151.317400042899,75,4095,1309,450
1153.1306999968365,0,4095,1363,464
1154.3074999935925,0,4095,1418,480
1156.0802000458352,0,4095,1463,498
1157.1437999955378,0,4095,1514,527
1159.1564000118524,910,4095,1567,555
1160.6438000453636,1974,2667,1421,545
1162.2829000116326,2928,816,1217,529
1163.4494000463746,3869,0,1065,511
1165.166600025259,4095,0,976,498
1166.354700049851,4095,0,898,482
1167.3728000023402,4095,0,832,463
1168.3871000423096,4095,0,768,441
1170.1545999967493,3131,0,705,415
1171.1151000345126,2197,0,694,400
1173.0240000179037,1235,2321,897,406
1174.0679999929853,4095,0,982,401
1175.3375999978743,4095,0,893,399
1177.0612000254914,4095,0,813,385
1178.0454000108875,4095,0,745,373
1179.1502000414766,4095,0,690,364
1180.151900043711,2793,0,637,346
1182.1777000441216,1856,919,738,355
1183.2998000318184,938,2794,919,369
1185.1753999944776,267,4095,1090,389
1186.255800013896,0,4095,1168,400
1188.2205000147223,0,4095,1244,417
1189.1217000083998,0,4095,1312,436
1191.119700029958,0,4095,1376,464
1192.2126000281423,498,4095,1438,495
1194.1674000117928,1614,4095,1439,507
1195.2937000314705,2635,1278,1207,493
1197.1472000004724,3520,80,1037,478
1198.237600037828,4095,0,946,475
1199.2528000264429,4095,0,876,461
1201.126700034365,4095,0,806,447
1202.1781000075862,4095,0,750,427
1203.2194000203162,3627,0,690,401
1205.1557000377215,2515,0,636,381
1206.1766000115313,3758,0,930,385
1207.1463000029325,4095,0,851,386
1209.1113000060432,4095,0,781,379
1210.1540000294335,4095,0,717,368
1211.2453000154346,4095,0,675,365
1212.2505000443198,4095,0,635,354
1214.128100022208,3152,0,592,339
1215.5739000299945,2213,0,599,334
1217.01150003355,1251,2351,816,353
1218.2876000297256,496,3847,992,368
1219.2348000244237,0,4095,1102,382
1221.173900004942,0,4095,1182,400
1222.2071000142023,0,4095,1259,421
1224.0721000125632,0,4095,1327,443
1225.1618000445887,89,4095,1392,470
1227.1907000103965,1271,4095,1456,503
1228.2945000333712,2320,1846,1245,490
1230.2921999944374,3233,417,1071,475
1231.7902000504546,4095,0,957,470
1233.201300026849,4095,0,880,461
1234.2709000222385,4095,0,815,446
1235.5106000322849,4095,0,754,431
1236.9742000009865,4095,0,697,406
1238.0247000255622,2829,0,643,384
1239.10230002366,3409,183,948,386
1241.0060000256635,4095,0,853,385
1242.0836000237614,4095,0,782,381
1243.2569999946281,4095,0,720,371
1244.7013000492007,4095,0,679,368
1246.3047000346705,4095,0,639,360
1247.5689999992028,3583,0,595,342
1249.2507999995723,2496,0,560,327
1250.566600007005,1534,1839,759,346
1251.6909000114538,703,3319,939,366
1253.1767000327818,58,4095,1072,376
1254.528300021775,0,4095,1156,395
1256.0926000005566,0,4095,1232,414
1257.2693999973126,0,4095,1299,435
1258.4704000037163,0,4095,1367,462
1260.1934000267647,893,4095,1434,494
1262.1490000165068,1963,2751,1313,492
1263.2839000434615,2937,816,1121,479
1265.0580000481568,3888,0,971,468
1266.4581999997608,4095,0,898,463
1267.777000030037,4095,0,830,447
1269.2569000064395,4095,0,767,432
1270.4420000081882,4095,0,711,411
1271.9712000107393,2224,2000,1146,407
1273.278200009372,2867,877,1008,400
1274.6403000201099,3450,114,875,394
1276.5211000223644,4095,0,800,390
1277.6827000197954,4095,0,750,389
1278.8607000256889,4095,0,703,383
1280.1914000301622,4095,0,656,368
1281.4006000407971,4095,0,619,357
1282.5403000460938,2815,0,576,338
1284.2450000462122,1861,913,687,345
1285.4641000158153,941,2781,872,363
1287.100100016687,258,4095,1045,377
1288.2976999972016,0,4095,1134,391
1290.1251000002958,0,4095,1210,409
1291.1578000057489,0,4095,1280,432
1292.4060000223108,0,4095,1346,454
1294.3336000316776,528,4095,1414,482
1296.1080000386573,1619,4095,1417,499
1297.3787999944761,2642,1267,1186,486
1299.1072000004351,3549,64,1008,473
1300.7145000156015,0,4095,1511,458
1302.1299000247382,0,4095,1535,475
1303.317700047046,0,4095,1573,493
1304.4946000445634,0,4095,1601,511
1306.1576000181958,912,4095,1642,551
1307.9849000205286,1965,2640,1481,549
1309.3148000189103,2934,796,1268,535
1310.5275999987498,3888,0,1109,511
1312.267100031022,4095,0,1017,510
1313.7483000173233,4095,0,934,492
1315.0013000122271,4095,0,861,471
1316.1982000456192,4095,0,794,449
1317.3513000365347,3146,0,724,423
1318.5486000147648,2194,3,717,405
1320.164000033401,1232,2379,918,415
1321.7200000071898,485,3889,1091,430
1323.1707999948412,0,4095,1183,432
1324.2455000290647,0,4095,1251,447
1326.0778000112623,0,4095,1323,464
1327.1919999970123,0,4095,1379,478
1328.3234999980778,52,4095,1440,506
1330.198500014376,1244,4095,1501,538
1332.0026000146754,334,4095,1648,496
1333.3150999969803,0,4095,1653,509
1334.512800036464,0,4095,1662,527
1336.2276999978349,0,4095,1674,545
1337.6701000379398,0,4095,1684,559
1339.2342000151984,0,4095,1705,576
1340.4097000020556,508,4095,1727,599
1342.143100046087,1605,4080,1681,610
1343.5126999975182,2624,1249,1421,591
1345.2286000247113,3529,43,1220,569
1346.4953000075184,4095,0,1115,560
1348.2371999998577,4095,0,1019,539
1349.594800034538,4095,0,939,511
1350.9041999932379,4095,0,862,490
1352.566800022032,3669,0,785,460
1353.896500018891,2512,0,720,430
1354.7186000505462,1535,1829,901,435
1356.008400034625,706,3308,1069,443
1357.2128000087105,50,4095,1185,448
1359.1202000388876,0,4095,1258,455
1360.1174000068568,4095,0,1133,436
1362.0448000147007,3829,0,1008,422
1363.0723000387661,2896,0,907,402
1364.1798000317067,2183,0,860,396
1366.091400035657,1222,2353,1050,416
1367.5492000184022,474,3758,1200,432
1369.0798000316136,0,4095,1279,439
1370.1138000469655,0,4095,1340,454
1371.9812000053935,0,4095,1397,474
1373.122200020589,0,4095,1447,495
1375.033100019209,48,4095,1501,525
1376.1480000102893,1254,4095,1559,550
1378.0378000228666,2307,1867,1331,531
1379.3285000137985,3215,453,1152,511
1381.1082000029273,4095,0,1023,503
1382.3934000101872,4095,0,944,492
1383.147300046403,4095,0,871,474
1385.0658000446856,4095,0,805,451
1386.0944000189193,4095,0,742,430
1387.256400019396,2800,0,681,400
1389.0463000279851,1856,1073,791,400
1390.1233000215143,4095,0,963,399
1391.1666000494733,4095,0,880,396
1393.1253000046127,4095,0,801,384
1394.2243000492454,4095,0,734,371
1395.4002000391483,4095,0,687,367
1397.0900000422262,3645,0,637,351
1398.4784000203945,2510,0,592,336
1400.0518000102602,1525,1836,787,352
1401.1485000373796,689,3259,958,369
1402.3775000241585,34,4095,1090,383
1404.1949000093155,0,4095,1174,400
1405.495700018946,0,4095,1249,417
1407.0620000129566,0,4095,1318,441
1408.4488000371493,0,4095,1382,465
1410.006100020837,886,4095,1447,496
1411.3297000294551,1952,2559,1308,493
1413.0507000372745,2910,755,1119,481
1414.096900029108,3858,0,976,470
1415.0568000040948,4095,0,902,464
1417.0156000182033,4095,0,833,449
1418.1971999933012,4095,0,772,432
1419.0220000455156,4095,0,718,414
1421.024200040847,3129,0,659,392
1422.1967000048608,3122,583,993,387
1423.3130000066012,3773,0,870,384
1425.1616999972612,4095,0,798,382
1426.3737000292167,4095,0,736,376
1427.1640999941155,4095,0,689,370
1428.2744000083767,4095,0,655,365
1430.2283000433818,4095,0,610,348
1431.7813999950886,2812,0,571,336
1432.9992000130005,1877,965,687,337
1434.133600036148,954,2800,871,358
1436.0896000289358,273,4095,1047,374
1437.1443000272848,0,4095,1133,384
1438.1463000318035,0,4095,1211,404
1440.0800000294112,0,4095,1283,427
1441.1694000009447,0,4095,1347,450
1443.0454000248574,559,4095,1415,480
1444.3437000154518,1627,3952,1399,496
1446.1269000312313,2649,1209,1177,481
1448.1614000396803,3551,30,1002,469
1449.237400025595,4095,0,923,464
1450.4565999959596,4095,0,851,451
1452.0343000185676,4095,0,787,437
1453.490900050383,4095,0,731,418
1454.8238000134006,1877,2963,1246,412
1456.1879000393674,2559,1379,1090,411
1458.096700021997,3152,511,957,400
1459.0185999986716,3895,0,848,398
1460.2341999998316,4095,0,790,399
1461.6462000412866,4095,0,737,390
1463.1456000497565,4095,0,690,381
1464.4269000273198,4095,0,646,368
1465.6701000058092,3131,0,599,352
1467.1809000428766,2191,0,607,340
1468.1411000201479,1221,2353,821,362
1470.047200040426,467,3846,999,380
1471.1416000500321,0,4095,1105,385
1473.0438000406139,0,4095,1187,403
1474.5553000248037,0,4095,1263,422
1476.1484000482596,0,4095,1328,447
1477.5345000089146,79,4095,1393,475
1479.0066000423394,1263,4095,1457,503
1480.55460001342,2318,1815,1243,490
1482.3604000266641,3217,410,1072,478
1483.7445000302978,0,4095,1529,459
1484.8972000181675,0,4095,1564,478
1486.1051000189036,0,4095,1585,496
1487.4001000425778,0,4095,1613,511
1489.145900006406,529,4095,1648,550
1490.7866000430658,1607,4095,1616,566
1492.2382000368088,2624,1248,1359,550
1493.300900037866,3527,48,1168,530
1495.0789000140503,4095,0,1071,526
1496.1268000188284,4095,0,976,503
1498.0220000143163,4095,0,898,484
1499.1240000235848,4095,0,830,463
1500.358999997843,3614,0,758,435
1501.3592000468634,2501,0,696,411
1503.206700028386,1525,1822,878,419
1505.049500032328,697,3297,1043,429
1506.5902000060305,48,4095,1166,432
1507.7807000488974,0,4095,1236,446
1508.994200034067,0,4095,1306,461
1510.093400022015,0,4095,1369,479
1512.0827000355348,0,4095,1424,498
1513.8233000179753,902,4095,1486,529
1515.0619000196457,565,3607,1605,496
1516.25620003324,128,4095,1637,506
1518.1811000220478,0,4095,1647,524
1519.5276000304148,0,4095,1654,531
1520.9775000112131,0,4095,1671,555
1522.3173000267707,0,4095,1685,574
1523.6808000481687,53,4095,1711,592
1525.028400006704,1251,4095,1737,618
1527.0254000206478,2315,1803,1486,593
1528.135500033386,3223,400,1281,576
1529.9757000175305,4095,0,1147,561
1531.0502999927849,4095,0,1056,546
1532.1243000216782,4095,0,963,526
1534.1079999925569,4095,0,887,496
1535.2176000014879,4095,0,814,465
1536.6236999980174,2791,0,742,435
1538.05850003846,1858,1008,839,432
1539.1063000424765,937,2832,1007,438
1541.117100045085,258,4095,1167,448
1542.4588000169024,4095,0,1083,431
1544.0187000203878,4095,0,976,417
1545.3268000273965,4095,0,882,402
1546.704500040505,3648,0,796,385
1548.1463000178337,2503,0,726,368
1549.4601000100374,1535,1840,905,387
1551.0622000438161,714,3264,1067,403
1552.2011000430211,53,4095,1183,413
1553.508800046984,0,4095,1259,427
1555.142400029581,0,4095,1323,446
1556.364800024312,0,4095,1380,464
1558.0305000185035,0,4095,1439,491
1559.6472000470385,911,4095,1495,525
1561.2683999934234,1979,2641,1360,510
1562.5648000277579,2943,795,1165,500
1564.1050999984145,3888,0,1013,490
1565.0620000087656,4095,0,938,479
1566.23799999943,4095,0,863,463
1568.087000050582,4095,0,799,448
1569.0614000195637,4095,0,739,427
1570.3722000471316,3123,0,684,400
1571.9837000360712,2181,5,677,385
1573.1281000189483,1231,2355,883,400
1574.1895000101067,4095,0,970,397
1576.1761000030674,4095,0,881,393
1577.6373000117019,4095,0,802,381
1579.174200014677,4095,0,735,373
1580.3618000354618,4095,0,682,359
1581.3280000002123,2800,0,630,342
1582.4114000424743,1867,929,734,351
1584.0594000183046,938,2797,915,368
1585.0727999932133,276,4095,1086,385
1587.044300045818,0,4095,1167,396
1588.279900024645,0,4095,1242,416
1590.0034999940544,0,4095,1305,435
1591.1425999947824,0,4095,1371,463
1593.1670000427403,546,4095,1434,493
1594.75760004716,1631,4018,1424,503
1596.1514000082389,2661,1215,1195,491
1597.3161000292748,3552,34,1017,478
1599.0526000387035,4095,0,939,471
1600.431300001219,4095,0,864,458
1601.5772999962792,4095,0,801,442
1602.9986999928951,4095,0,742,426
1604.0333000128157,3667,0,686,400
1605.5779000162147,2875,875,1039,399
1607.225300045684,3492,99,899,389
1608.6118000093848,4095,0,816,386
1610.185300000012,4095,0,752,379
1611.5183000219986,4095,0,704,373
1612.7833999926224,4095,0,666,368
1614.6579000051133,4095,0,624,355
1615.997700020671,3123,0,585,341
1617.3394999932498,2192,101,606,336
1618.7230000505224,1211,2413,820,352
1620.0377000495791,474,3888,996,370
1621.3311000028625,0,4095,1101,384
1622.6193000329658,0,4095,1181,400
1623.874600045383,0,4095,1261,419
1625.1053000451066,0,4095,1326,443
1626.4250000240281,67,4095,1392,469
1628.2233000383712,1264,4095,1456,501
1629.2737000039779,2324,1872,1246,489
1631.0546000022441,3214,471,1074,475
1632.107600045856,4095,0,958,467
1634.0807999949902,4095,0,882,462
1635.2583999978378,0,4095,1447,439
1636.5357000031509,0,4095,1490,465
1638.1757000344805,805,4095,1534,488
1640.0680000078864,1630,4074,1506,499
1641.8395999935456,2654,1235,1267,489
1643.0298000341281,3545,43,1087,478
1644.3440000293776,4095,0,993,473
1645.7220000447705,4095,0,912,464
1647.4898000014946,4095,0,845,447
1648.6324000288732,4095,0,783,432
1649.0445000235923,3664,0,719,407
1651.0022000293247,2512,0,657,385
1652.1746999933384,1535,1821,846,397
1654.263100004755,693,3278,1008,405
1655.690300045535,54,4095,1137,414
1656.9899000460282,0,4095,1217,428
1658.3071000059135,0,4095,1285,445
1659.7307000192814,0,4095,1347,464
1661.8196000345051,0,4095,1408,487
1663.1878000334837,903,4095,1472,511
1664.3902999931015,1973,2655,1338,508
1665.0653000106104,0,4095,1616,481
1667.046200018376,0,4095,1623,496
1668.0628000176512,0,4095,1647,511
1669.3654000409879,0,4095,1655,531
1671.1632999940775,0,4095,1679,555
1672.60950000491,80,4095,1701,577
1674.1524999961257,1266,4095,1728,603
1676.4148999936879,2334,1776,1472,579
1678.0980000039563,3239,406,1276,564
1679.763099993579,4095,0,1139,553
1680.065900029149,4095,0,1048,539
1681.0584000195377,4095,0,958,511
1683.0141000100411,4095,0,880,491
1684.0717000304721,4095,0,810,463
1685.0369000458159,2800,0,738,432
1687.112600018736,1850,1005,834,432
1688.6100000119768,937,2832,1006,436
1690.0027000228874,249,4095,1163,443
1691.4871000335552,0,4095,1233,449
1692.9774000309408,0,4095,1299,462
1694.2129000090063,3779,0,1149,442
1695.0338000315242,2863,0,1023,427
1697.0470999949612,2263,0,955,416
1698.1995000387542,1522,1880,1083,429
1700.2148000174202,701,3326,1219,443
1701.1764000053518,54,4095,1318,454
1703.1076000421308,0,4095,1373,465
1704.114500025753,0,4095,1424,481
1706.084400007967,0,4095,1470,500
1707.2884000372142,0,4095,1519,528
1709.1184000018984,915,4095,1575,556
1710.4233000427485,1990,2727,1425,547
1712.110800028313,2943,829,1225,530
1713.1165000027977,3888,0,1072,511
1714.3890000297688,4095,0,981,499
1716.098900011275,4095,0,905,485
1717.4309000256471,4095,0,835,464
1718.7533000251278,4095,0,769,442
1719.988299999386,3119,0,709,415
1721.304600010626,2176,116,716,400
1723.1983999954537,1216,2416,912,412
1724.7069000150077,4095,0,987,401
1726.3692000415176,4095,0,896,396
1728.2397000235505,4095,0,816,385
1729.6047999989241,4095,0,750,371
1730.8905000099912,4095,0,688,365
1732.1643000468612,2797,0,640,346
1733.5062000202015,1845,962,747,354
1734.8979000234976,934,2817,927,371
1736.3010999979451,272,4095,1093,387
1737.7052000374533,0,4095,1170,400
1739.150800043717,0,4095,1247,414
1740.4654000420123,0,4095,1315,438
1741.9802999938838,0,4095,1378,463
1744.1274000448175,552,4095,1443,491
1745.5863000359386,1629,3975,1424,507
1747.0260999980383,2651,1201,1199,492
1748.4483000007458,3553,23,1021,475
1749.8423000215553,4095,0,943,470
1750.6159000331536,4095,0,867,461
1751.1307999957353,4095,0,804,444
1752.377400000114,4095,0,745,425
1753.5164000000805,3679,0,688,400
1755.0968000432476,2507,0,634,378
1756.1340000247583,3792,0,928,384
1757.3523000464775,4095,0,848,384
1759.1016000369564,4095,0,777,373
1760.816199996043,4095,0,717,368
1762.1047000284307,4095,0,673,361
1763.359800039325,4095,0,633,351
1764.629200042691,3145,0,591,336
1765.911100024823,2182,74,609,334
1767.0609000488184,1217,2405,823,351
1768.338900001254,466,3906,1003,369
1770.3692000359297,0,4095,1102,382
1772.0369000453502,0,4095,1187,399
1773.576800012961,0,4095,1261,419
1775.1426000031643,0,4095,1328,444
1777.0174000179395,64,4095,1392,470
1778.4208999946713,1255,4095,1458,502
1779.78720003739,2320,1792,1239,486
1781.235900009051,3226,384,1066,474
1782.391100015957,4095,0,953,468
1783.1626000115648,4095,0,880,460
1784.4989000004716,4095,0,815,445
1785.6686000013724,4095,0,752,429
1787.3927000327967,4095,0,697,405
1788.8773000449874,2598,1354,1085,398
1790.2251000050455,3192,496,955,393
1791.574600036256,3845,0,838,384
1792.8119000280276,4095,0,775,383
1794.153599999845,4095,0,721,379
1796.0493999999017,4095,0,678,371
1797.453100036364,4095,0,640,362
1798.733000003267,3630,0,595,348
1799.153900006786,2499,0,560,329
1801.000000035856,1506,1890,765,348
1802.4842000450008,685,3328,941,365
1804.0265000308864,34,4095,1072,377
1805.6586000020616,0,4095,1155,394
1807.5629000086337,0,4095,1232,414
1808.9197000372224,0,4095,1301,432
1810.2159000118263,0,4095,1367,459
1811.6212000022642,906,4095,1431,491
1813.1806000019424,1969,2671,1305,486
1814.0204999945126,2927,816,1118,477
1815.2079000137746,3899,0,970,464
1816.1553000099957,4095,0,897,460
1818.208400043659,4095,0,830,444
1819.5946000050753,0,4095,1424,433
1821.220300043933,826,4095,1477,462
1822.6314000203274,1535,4095,1471,476
1824.369200039655,2333,1759,1267,464
1826.038500003051,3246,366,1090,458
1827.478000021074,4095,0,978,454
1829.363500000909,4095,0,901,448
1829.6568000223488,4095,0,832,433
1831.2955000437796,4095,0,771,422
1832.7195000019856,4095,0,714,401
1834.0267000021413,2800,0,656,378
1835.3957000072114,1840,926,755,380
1836.745200038422,930,2774,933,394
1838.2670000428334,247,4095,1101,404
1839.6089000161737,0,4095,1179,417
1841.1011000280268,0,4095,1251,432
1842.7360000205226,0,4095,1319,450
1843.7791000469588,0,4095,1380,470
1845.2042000135407,501,4095,1443,496
1847.0615000114776,1616,3933,1424,511
1848.6750000156462,99,4095,1622,479
1850.207900046371,0,4095,1634,493
1851.6120000276715,0,4095,1647,507
1853.1105000292882,0,4095,1659,529
1854.4881000416353,0,4095,1678,547
1855.8092000312172,0,4095,1695,574
1857.2738000075333,911,4095,1723,593
1858.6679000291042,1973,2701,1565,592
1860.0061000324786,2942,848,1344,575
1861.0324000474066,3888,0,1169,561
1863.0205999943428,4095,0,1074,545
1864.1789000248536,4095,0,981,528
1865.3148000012152,4095,0,906,497
1867.0882000005804,4095,0,831,471
1868.7995999935083,3151,0,759,442
1870.2380000031553,2183,171,765,426
1871.7142000095919,1207,2439,954,433
1873.3215000247583,464,3952,1125,444
1874.9088000040501,0,4095,1209,449
1875.7761000306346,0,4095,1280,458
1877.0424000103958,0,4095,1341,471
1878.2043000101112,2956,0,1159,437
1879.5952000073157,2316,0,1044,431
1881.1522000469267,1671,1504,1141,438
1883.012400008738,947,2799,1233,447
1884.6869000117294,263,4095,1360,464
1886.0447000479326,0,4095,1407,476
1887.2928000055254,0,4095,1456,495
1888.0710999947041,0,4095,1494,508
1890.1582999969833,0,4095,1535,533
1891.6986000258476,539,4095,1587,560
1893.0050000199117,1632,3824,1535,565
1895.0156000209972,2672,1169,1299,549
1898.738800024148,3571,5,1115,529
1899.38430004986,4095,0,1023,511
1899.6951000299305,4095,0,944,496
1900.028600008227,4095,0,868,478
1901.393000036478,4095,0,803,459
1903.3191000344232,3600,0,736,432
1904.8904000082985,2491,0,677,401
1906.3038000022061,1514,1849,863,413
1907.5553000438958,685,3289,1023,421
1908.1949000246823,4095,0,1020,413
1910.0948999985121,4095,0,925,403
1911.3226000335999,4095,0,839,393
1912.661400041543,4095,0,767,379
1913.9698999933898,3115,0,703,363
1915.7592999981716,2171,28,702,357
1917.0886000501923,1203,2378,901,372
1918.1647000368685,448,3853,1072,393
1919.3029000307433,0,4095,1168,400
1921.2372000329196,0,4095,1243,420
1922.6778000011109,0,4095,1309,437
1924.0780000109226,0,4095,1370,459
1925.4855000181124,55,4095,1429,487
1927.3458000388928,1263,4095,1490,511
1929.0365000488237,2319,1799,1270,497
1930.812500009779,3216,409,1098,490
1931.8574000499211,4095,0,977,478
1933.1694000284187,4095,0,905,467
1934.5429000095464,4095,0,833,452
1935.5250000371598,4095,0,774,434
1937.2911000391468,4095,0,714,414
1938.7002000003122,2811,0,656,389
1939.0415000380017,3418,154,956,387
1941.0850999993272,4095,0,861,385
1942.1924000489525,4095,0,787,379
1943.0977000156417,4095,0,726,371
1944.3330999929458,4095,0,684,368
1946.419700048864,4095,0,642,359
1948.169700044673,3636,0,603,342
1949.9178000260144,2501,0,561,330
1951.3950000400655,1531,1777,754,342
1952.7454000199214,694,3267,935,364
1954.5494000194594,42,4095,1072,375
1955.9464000049047,0,4095,1155,391
1957.3272000416182,0,4095,1232,410
1958.6386000155471,0,4095,1299,432
1960.1333000464365,0,4095,1367,459
1961.9611999951303,940,4095,1436,489
1963.372900034301,2003,2675,1308,487
1964.735700050369,2973,832,1121,476
1966.0419000429101,3964,0,971,466
1967.3911000136286,4095,0,898,461
1968.7768000294454,4095,0,832,446
1969.629500003066,4095,0,769,432
1970.0838000280783,4095,0,715,413
1971.4557999977842,2231,2032,1150,403
1973.2938000233844,2878,915,1013,400
1974.7727999929339,3479,151,882,390
1976.2737000128254,4095,0,802,390
1977.7474000002258,4095,0,752,387
1979.428100050427,4095,0,705,378
1981.1717999982648,4095,0,661,370
1982.5485000037588,4095,0,618,358
1983.9003999950364,2801,0,578,336
1985.4547000140883,1840,1009,697,345
1985.8707000385039,935,2803,880,363
1987.1582000050694,266,4095,1052,379
1988.20490000071,0,4095,1136,389
1990.0070000439882,0,4095,1215,409
1991.1192000145093,0,4095,1284,431
1992.3412000061944,0,4095,1351,454
1994.2352999933064,530,4095,1417,483
1996.1508000269532,1632,4031,1405,496
1997.249300009571,2661,1235,1181,484
1999.1343000438064,3566,47,1007,470
2000.4878000472672,0,4095,1515,452
2002.0760000334121,0,4095,1535,470
2003.0156000284478,0,4095,1575,488
2004.5207000221126,0,4095,1602,511
2006.445300008636,914,4095,1643,548
2008.2918000407517,1993,2593,1477,543
2009.9846000084653,2956,781,1267,531
2012.0911000412889,3920,0,1109,511
2014.0224000206217,4095,0,1016,502
2015.806000039447,4095,0,934,487
2018.1803000159562,4095,0,861,469
2019.5153999957256,4095,0,789,448
2019.8568000341766,3152,0,725,421
2020.1681000180542,2189,112,727,405
2020.6552000017837,1235,2422,927,416
2022.1257000230253,478,3959,1103,430
2023.74170004623,0,4095,1187,433
2024.790600000415,0,4095,1261,448
2025.9906999999657,0,4095,1327,461
2028.0016000033356,0,4095,1383,479
2029.0354000171646,74,4095,1445,503
2030.2366000250913,979,2790,1517,480
2032.2921000188217,491,3862,1584,496
2034.0238000499085,62,4095,1607,507
2035.6526999967173,0,4095,1617,524
2036.116600036621,0,4095,1639,535
2037.1860000304878,0,4095,1658,557
2039.1557000111789,0,4095,1680,575
2041.0443000146188,511,4095,1708,594
2043.0246000178158,1633,4095,1677,607
2044.0493000205606,2659,1261,1409,587
2045.447200012859,3558,67,1210,569
2047.4081000429578,4095,0,1106,555
2049.134300032165,4095,0,1012,538
2050.821900018491,4095,0,931,511
2052.5096000055782,4095,0,855,486
2054.2623000219464,3620,0,784,457
2056.813900009729,2505,0,720,429
2058.4704999928363,1531,1863,899,432
2058.9658000390045,700,3292,1062,442
2059.2990000150166,29,4095,1182,447
2059.689400019124,4095,0,1093,428
2060.045199992601,4095,0,983,418
2062.0363000198267,4095,0,885,402
2063.0689000245184,3152,0,799,384
2064.118300040718,2195,14,773,381
2066.1844999995083,1218,2383,974,398
2068.0252000456676,465,3856,1136,414
2069.744400039781,0,4095,1225,423
2071.4428999926895,0,4095,1289,439
2072.167900041677,0,4095,1355,458
2073.04790004855,0,4095,1409,476
2075.0428000465035,59,4095,1465,503
2076.0600000503473,1265,4095,1522,537
2078.170199994929,2325,1755,1294,511
2079.113200015854,3214,368,1111,499
2081.0530000017025,4095,0,999,493
2082.5838000164367,4095,0,920,479
2084.192900045309,4095,0,851,464
2085.797600040678,4095,0,785,448
2086.969099997077,4095,0,724,423
2087.3062000027858,2806,0,668,398
2089.146200043615,1850,950,768,399
2090.088700002525,4095,0,955,398
2091.2723999936134,4095,0,871,391
2092.9901000345126,4095,0,793,381
2094.024799996987,4095,0,727,371
2095.154300041031,4095,0,683,366
2097.163600032218,3621,0,635,347
2099.2540000006557,2505,0,592,334
2101.1536000296474,1533,1795,782,351
2102.8278000303544,704,3217,949,368
2104.5569000416435,35,4095,1088,384
2107.1231000241823,0,4095,1170,400
2108.234400046058,0,4095,1247,421
2108.628000016324,0,4095,1315,439
2108.9531000470743,0,4095,1380,464
2109.624300035648,909,4095,1445,496
2111.5394000080414,1993,2598,1309,491
2113.457700004801,2957,785,1121,481
2114.812300016638,3919,0,976,467
2115.3096000198275,4095,0,905,462
2117.1341000008397,4095,0,834,449
2118.1899000075646,4095,0,774,432
2120.0098000117578,4095,0,719,412
2122.0642999978736,3130,0,659,389
2123.919300036505,2179,3,657,377
2125.841600005515,4095,0,927,384
2128.434800019022,4095,0,847,380
2130.1054999930784,4095,0,773,371
2130.577100033406,4095,0,709,367
2130.865300016012,4095,0,667,365
2131.1753000481986,4095,0,624,347
2131.499500013888,2811,0,578,331
2133.1337000010535,1850,1088,708,339
2135.7731000171043,936,2849,887,357
2137.1611000504345,241,4095,1058,373
2137.643499998376,0,4095,1137,388
2138.0527000292204,0,4095,1217,405
2140.1262000435963,0,4095,1289,432
2142.9814000148326,0,4095,1354,451
2145.947500015609,501,4095,1421,483
2148.559399996884,1616,4095,1424,498
2150.5111000151373,2635,1283,1198,489
2151.7170000006445,3536,98,1018,471
2153.0272000236437,4095,0,937,465
2154.4673000462353,4095,0,863,455
2155.2110000047833,4095,0,797,438
2155.5999999982305,4095,0,739,423
2155.9183000354096,1872,3057,1258,415
2156.247000035364,2555,1396,1101,411
2157.4783000396565,3152,529,965,401
2159.1847999952734,3915,0,850,399
2160.4732000268996,4095,0,794,400
2161.96850000415,4095,0,741,391
2163.5232000262477,4095,0,694,383
2165.590599994175,4095,0,652,368
2167.386500048451,3141,0,605,351
2169.198200048413,2187,69,622,342
2171.6955000301823,1223,2403,833,362
2173.9030000171624,471,3888,1008,378
2176.68140004389,0,4095,1109,387
2179.836300027091,0,4095,1194,404
2182.820799993351,0,4095,1266,425
2184.1641000355594,0,4095,1331,448
2184.643800021149,117,4095,1398,474
2185.0097000133246,1282,4095,1461,506
2185.551900009159,2335,1811,1243,493
2186.0106000094675,3257,405,1072,479
2186.328300042078,0,4095,1534,460
2186.6350000491366,0,4095,1567,479
2186.9327000458725,0,4095,1587,495
2187.5026000197977,0,4095,1613,511
2189.1168000292964,503,4095,1648,551
2191.4234000141732,1623,4091,1615,563
2194.274800014682,2647,1251,1359,547
2197.3289000452496,3540,47,1166,531
2199.622900050599,4095,0,1071,524
2200.203100044746,4095,0,977,502
2200.542200007476,4095,0,899,483
2200.834900024347,4095,0,831,459
2201.1404000222683,3655,0,758,435
2202.0484000095166,2503,0,698,407
2203.804000047967,1535,1808,877,416
2206.1141000012867,702,3262,1040,429
2208.84420000948,45,4095,1165,432
2211.825800011866,0,4095,1235,442
2212.508400029037,0,4095,1301,461
2212.992800050415,0,4095,1363,474
2213.3060000487603,0,4095,1424,496
2214.2629000009038,1296,2222,1450,478
2215.7639000215568,759,3138,1499,495
2217.465399997309,313,4095,1574,503
2219.1193000180647,0,4095,1589,511
2220.7029000273906,0,4095,1607,528
2221.6925999964587,0,4095,1633,549
2222.0961000421084,0,4095,1650,563
2223.2067000004463,91,4095,1680,587
2225.1838000374846,1279,4095,1709,610
2227.030600013677,2336,1752,1456,585
2228.100100008305,3247,400,1261,570
2230.0464000436477,4095,0,1131,559
2231.072900001891,4095,0,1038,539
2232.302200049162,4095,0,946,511
2234.0809000306763,4095,0,877,492
2235.7683000154793,4095,0,800,462
2237.5941000063904,2811,0,731,433
2239.6071000257507,1854,1009,832,430
2241.7786000296474,943,2822,998,436
2243.9570000278763,258,4095,1159,446
2246.0041000158526,4095,0,1078,421
2247.7726000361145,4095,0,971,413
2249.646400043275,4095,0,880,399
2251.638300018385,3686,0,795,382
2253.2357000163756,2510,0,722,366
2255.207900016103,1527,1849,905,384
2256.9382000365295,691,3280,1065,400
2257.3961000307463,22,4095,1181,407
2257.7002000180073,0,4095,1255,422
2257.9927000333555,0,4095,1323,444
2258.2725000102073,0,4095,1377,464
2258.5738000343554,0,4095,1435,490
2259.1806999989785,890,4095,1497,511
2261.3774000201374,1970,2647,1359,511
2262.3760999995284,2938,803,1166,497
2264.077100029681,3897,0,1010,487
2265.1192000485025,4095,0,937,478
2266.066500043962,4095,0,866,461
2268.1077000452206,4095,0,795,443
2269.337700039614,4095,0,741,423
2270.927000034135,3159,0,681,400
2272.6685000234284,2188,85,688,386
2274.5781000121497,4095,0,943,390
2276.537100027781,4095,0,857,385
2278.5702000255696,4095,0,784,377
2280.561799998395,4095,0,722,368
2282.369500026107,4095,0,677,363
2284.2503000283614,4095,0,633,351
2286.1453000223264,2798,0,591,336
2287.14279999258,1840,915,699,341
2288.4136000066064,933,2785,883,360
2290.310700016562,247,4095,1058,379
2292.3345000017434,0,4095,1139,389
2294.1507000359707,0,4095,1218,407
2295.9090000367723,0,4095,1291,430
2297.6150000467896,0,4095,1358,453
2298.6320000491105,511,4095,1423,485
2298.9795000175945,1630,3981,1407,496
2299.2665000492707,2661,1232,1182,483
2299.520600005053,3559,49,1008,469
2300.502800033428,4095,0,927,464
2301.545599999372,4095,0,857,453
2301.8538000178523,4095,0,793,437
2302.139800041914,4095,0,736,421
2304.1759000043385,3648,0,680,398
2305.1429000333883,2878,871,1034,397
2307.3037000140175,3487,87,891,387
2308.4369000280276,4095,0,813,385
2309.155900031328,4095,0,752,379
2311.0312000499107,4095,0,702,371
2312.091700034216,4095,0,659,367
2313.024500035681,4095,0,624,355
2315.0181000237353,3127,0,583,337
2316.0636000102386,2151,16,592,327
2317.4879000289366,1207,2399,816,350
2319.128900009673,465,3913,993,368
2320.633399998769,0,4095,1097,379
2322.1276000258513,0,4095,1179,399
2323.5486000194214,0,4095,1255,419
2325.030100008007,0,4095,1323,441
2326.060499995947,71,4095,1390,465
2328.09200003976,1290,4095,1455,499
2329.936299996916,2357,1758,1232,482
2331.816299993079,3263,384,1063,471
2333.3267000271007,4095,0,950,464
2334.7517999936827,4095,0,880,454
2335.800700006075,4095,0,813,439
2336.832400003914,416,4095,1424,438
2338.1368000409566,1202,4095,1473,463
2340.2239000424743,1907,2934,1351,464
2342.7800000063144,2665,1263,1183,453
2344.5928000146523,3566,53,1007,447
2346.0519000072964,4095,0,929,446
2347.5774000398815,4095,0,854,435
2348.7840000307187,4095,0,791,426
2349.839000031352,4095,0,734,407
2350.651300046593,3583,0,678,389
2351.3831000309438,2481,0,627,368
2352.619900018908,1494,1821,816,382
2354.1673000436276,666,3253,979,395
2355.412000033539,5,4095,1113,403
2356.5323000075296,0,4095,1195,416
2358.2214000052772,0,4095,1265,432
2359.1931000119075,0,4095,1330,451
2361.128100019414,0,4095,1395,477
2362.1444000164047,885,4095,1457,506
2364.2013000207953,1961,2594,1321,499
2365.6109000439756,0,4095,1606,477
2367.122300027404,0,4095,1619,495
2368.597000022419,0,4095,1634,508
2369.9037000187673,0,4095,1649,528
2371.1002000491135,0,4095,1667,549
2372.3285000305623,49,4095,1694,575
2374.17429999914,1264,4095,1722,598
2375.7474000449292,2332,1761,1466,578
2377.315699995961,3226,397,1267,560
2378.676899999846,4095,0,1136,550
2380.10559999384,4095,0,1042,534
2381.4286999986507,4095,0,955,507
2382.7331000356935,4095,0,879,489
2384.1739000054076,4095,0,805,459
2385.6746000237763,2809,0,737,431
2387.091600045096,1858,1010,833,426
2388.436300039757,947,2832,1001,433
2390.138000017032,271,4095,1159,443
2391.3039000472054,0,4095,1232,448
2392.2972000436857,0,4095,1297,463
2394.181000010576,0,4095,1360,477
2395.1569000491872,2640,0,1164,432
2397.279000026174,1987,624,1163,438
2399.1773000452667,1341,2167,1233,448
2400.870700017549,690,3237,1323,459
2402.4501999956556,32,4095,1411,471
2403.8227000273764,0,4095,1455,486
2405.3343000123277,0,4095,1491,501
2406.807299994398,0,4095,1532,527
2408.2458000048064,0,4095,1577,545
2409.6930000232533,899,4095,1618,571
2411.123000027146,1991,2630,1459,562
2412.562200042885,2961,801,1258,547
2413.954999996349,3925,0,1099,530
2415.2817000285722,4095,0,1008,511
2416.5625000023283,4095,0,926,496
2417.87080001086,4095,0,855,476
2419.059100036975,4095,0,787,451
2420.3072999953292,3152,0,720,426
2421.063400048297,2185,115,723,410
2423.4031999949366,1221,2422,925,417
2425.1398000051267,4095,0,995,407
2426.6407000250183,4095,0,903,400
2427.6001999969594,4095,0,819,389
2428.342600003816,4095,0,751,376
2429.4230000232346,4095,0,693,367
2431.0526000335813,2801,0,642,348
2432.3411000077613,1846,1015,753,357
2434.194600034971,917,2839,931,374
2435.613200010266,244,4095,1095,387
2437.1572000090964,0,4095,1175,402
2438.169800036121,0,4095,1249,419
2439.427600009367,0,4095,1314,439
2441.224300011527,0,4095,1378,465
2442.6900999969803,525,4095,1441,494
2444.3126000114717,1623,4061,1430,505
2446.053000050597,2655,1232,1201,494
2447.091600042768,3554,48,1023,479
2448.3527000411414,4095,0,944,474
2450.490400020499,4095,0,871,461
2451.12360001076,4095,0,807,445
2452.1326000103727,4095,0,749,429
2454.106800025329,3682,0,688,402
2455.2281000069343,2897,875,1040,394
2457.285500015132,3526,75,896,385
2458.4639000240713,4095,0,817,382
2459.374400030356,4095,0,752,375
2461.0540000139736,4095,0,705,371
2462.374800001271,4095,0,662,367
2463.4177000261843,4095,0,624,356
2464.446300000418,3159,0,586,336
2466.1200999980792,2206,0,590,333
2467.3722000443377,1225,2354,810,348
2469.3059000419453,475,3823,985,367
2470.4913000459783,0,4095,1092,379
2472.0653000404127,0,4095,1175,396
2473.223800014239,0,4095,1250,419
2474.321100045927,0,4095,1319,439
2476.1214000172913,16,4095,1389,466
2477.3353000055067,1243,4095,1455,496
2479.2937000165693,2320,1776,1232,482
2481.1076000332832,3227,387,1061,469
2482.1877000504173,4095,0,949,464
2483.3815000019968,4095,0,879,454
2485.0998000474647,4095,0,813,439
2486.1884000129066,4095,0,751,426
2487.9966000444256,1505,4095,1395,433
2489.26639999263,2224,2123,1215,429
2491.134300013073,2851,977,1073,421
2492.3741000238806,3559,83,928,413
2493.2198000024073,4095,0,858,411
2495.1105000218377,4095,0,797,406
2496.110600011889,4095,0,741,399
2497.4698000005446,4095,0,690,386
2499.085300019942,3649,0,641,368
2500.1670000492595,2495,0,593,346
2501.38800003333,1520,1808,785,366
2503.1998000340536,679,3254,958,378
2504.305900016334,18,4095,1092,393
2506.1193000292405,0,4095,1174,403
2507.2775000007823,0,4095,1247,423
2509.0864000376314,0,4095,1317,443
2510.2190000470728,0,4095,1378,467
2512.0162999955937,893,4095,1447,496
2513.039400044363,1981,2629,1309,496
2515.2173000387847,2945,791,1123,481
2516.3828000077046,0,4095,1535,459
2518.0693000438623,0,4095,1578,477
2519.1177999950014,0,4095,1597,496
2520.333699998446,0,4095,1619,511
2522.208300011698,65,4095,1648,547
2523.307900002692,1277,4095,1682,575
2525.3481999970973,2326,1820,1436,558
2527.0598000497557,3238,400,1239,542
2528.386300022248,4095,0,1109,529
2529.1570000117645,4095,0,1015,510
2531.108100025449,4095,0,933,494
2532.221200002823,4095,0,859,473
2533.2009000121616,4095,0,785,448
2535.0500000058673,2819,0,720,422
2536.1795000499114,1870,896,812,418
2538.0540000041947,944,2789,979,427
2539.109000004828,272,4095,1146,433
2541.18360002758,0,4095,1218,442
2542.445700033568,0,4095,1286,454
2543.779400002677,0,4095,1350,471
2545.248900016304,0,4095,1408,493
2546.374600031413,1615,1473,1375,460
2548.1276000500657,995,2655,1423,473
2550.083900045138,511,3606,1488,489
2551.1720000067726,26,4095,1535,496
2552.450700022746,0,4095,1565,511
2554.2509999941103,0,4095,1591,530
2555.868300027214,0,4095,1616,550
2556.9258000468835,0,4095,1648,570
2558.654499996919,875,4095,1680,593
2560.314600006677,1958,2737,1523,585
2561.053100042045,2907,822,1311,565
2563.1104000494815,3854,0,1142,553
2564.336800016463,4095,0,1051,538
2565.4132000054233,4095,0,961,511
2567.268100043293,4095,0,885,492
2568.2719000033103,4095,0,816,469
2569.425699999556,3120,0,747,438
2571.20040000882,2175,0,721,417
2572.4247000180185,1201,2337,927,429
2574.2164000403136,450,3851,1102,437
2575.5170000484213,4095,0,1052,420
2576.076600002125,4095,0,949,411
2578.1468000495806,4095,0,860,399
2579.2149000335485,4095,0,783,384
2580.3915000287816,2802,0,718,368
2582.1483000181615,1840,723,785,371
2583.417100016959,925,2757,970,390
2585.3382000350393,251,4095,1137,403
2586.2911000149325,0,4095,1210,417
2588.1670000380836,0,4095,1280,432
2589.2510000267066,0,4095,1344,448
2590.3778000501916,0,4095,1403,473
2592.078300018329,511,4095,1462,501
2594.0908000338823,1616,4095,1465,511
2595.1555000501685,2640,1246,1227,500
2597.1182000357658,3537,14,1046,490
2598.2088000164367,4095,0,960,479
2599.0614000475034,4095,0,887,467
2601.029900019057,4095,0,820,450
2602.1900000050664,4095,0,757,432
2603.2667999970727,3569,0,697,406
2605.0073000369594,2482,0,645,384
2606.0687000281177,1521,1719,822,393
2607.182500010822,4095,0,958,395
2609.2416000319645,4095,0,869,387
2610.419800039381,4095,0,791,381
2611.613999994006,4095,0,729,369
2613.1394000258297,4095,0,681,359
2614.24550000811,3087,0,627,346
2615.2239000075497,2159,0,591,336
2617.1367000206374,1197,2235,823,354
2618.271100043785,461,3739,1000,372
2620.0254000141285,0,4095,1109,385
2621.253399993293,0,4095,1191,401
2623.0135000078008,0,4095,1264,424
2624.258900003042,0,4095,1329,444
2625.5035000503995,70,4095,1395,472
2627.2338000126183,1259,4095,1461,502
2628.98259999929,2320,1877,1249,491
2630.273400049191,3205,370,1072,478
2632.054799993057,4095,0,960,470
2633.1123000127263,4095,0,884,462
2634.2211000155658,4095,0,817,448
2635.359400010202,4095,0,759,432
2637.1158999972977,4095,0,701,408
2638.350300025195,2559,1407,1088,400
2640.0061000022106,3147,447,945,394
2641.3126999977976,3755,0,835,386
2642.316400015261,4095,0,772,383
2644.1223000292666,4095,0,722,381
2645.19820001442,4095,0,681,371
2646.3110000477172,4095,0,642,364
2648.110300011467,3415,0,597,350
2649.105300020892,2447,0,560,331
2650.655400007963,1488,1510,733,345
2652.2062000003643,688,3260,925,365
2654.0462000411935,64,4095,1065,378
2655.2609000355005,0,4095,1149,390
2656.2907000188716,0,4095,1226,411
2658.1985999946482,0,4095,1296,432
2659.040800004732,0,4095,1363,459
2661.099800025113,982,4095,1430,488
2662.156100035645,2000,3263,1357,495
2664.297300041653,2923,807,1127,477
2665.462800010573,3799,0,978,468
2666.117300046608,4095,0,907,464
2668.0274000391364,4095,0,837,448
2669.0506000304595,246,4095,1428,434
2671.143600018695,946,4095,1478,464
2673.0650000390597,1587,4095,1521,489
2674.0006000036374,2346,2147,1318,469
2676.0766000370495,3167,368,1109,463
2677.148200047668,4095,0,998,461
2678.050799993798,4095,0,919,453
2680.147400009446,4095,0,848,439
2681.039899995085,4095,0,785,429
2682.0838000276126,3728,0,720,405
2684.0210999944247,2688,0,666,381
2685.1828999933787,1797,432,719,380
2687.0417000027373,949,2834,939,400
2688.9376000035554,327,4095,1102,407
2689.9276000331156,0,4095,1177,417
2691.141700022854,0,4095,1254,432
2692.029000027105,0,4095,1318,449
2694.057300046552,0,4095,1379,469
2695.174299995415,765,4095,1444,496
2697.2663000342436,1698,4095,1502,531
2698.4221000457183,233,4095,1638,490
2700.2219000132754,0,4095,1647,499
2701.369700022042,0,4095,1652,511
2702.951600018423,0,4095,1667,532
2703.9991000201553,0,4095,1681,555
2705.230700026732,196,4095,1709,576
2707.310800033156,1098,4095,1729,601
2709.246000042185,2037,3490,1635,601
2710.4656000155956,2893,745,1353,576
2712.0338000240736,3681,0,1190,564
2713.2320000091568,4095,0,1091,547
2714.414600050077,4095,0,995,529
2716.084800020326,4095,0,914,500
2717.2111000400037,3904,0,837,472
2718.406200001482,2898,0,767,447
2720.0026000500657,2089,0,704,416
2721.057999995537,1216,2210,931,431
2723.1074000010267,560,4095,1125,444
2724.198600044474,0,4095,1200,444
2726.0302000213414,0,4095,1269,457
2727.174500003457,0,4095,1333,466
2728.1818000483327,2689,0,1157,437
2730.1120000192896,2130,0,1040,426
2731.037900026422,1535,1050,1104,432
2733.096900046803,974,2768,1223,445
2734.2535000061616,390,4095,1349,460
2736.166900023818,0,4095,1394,468
2737.429900036659,0,4095,1441,485
2739.0348000335507,0,4095,1487,500
2740.8122000051662,0,4095,1526,528
2742.235100013204,830,4095,1579,555
2743.455499992706,1723,4095,1622,578
2745.3494000365026,2631,1304,1328,548
2746.499800006859,3390,0,1130,529
2748.2363000162877,4095,0,1041,524
2749.2696000263095,4095,0,955,499
2750.411899993196,4095,0,880,476
2752.202200004831,4095,0,811,459
2753.199200029485,3198,0,742,432
2754.0042000473477,2384,0,686,407
2756.30030001048,1503,1337,825,407
2757.4133000453003,4095,0,976,400
2758.3991000428796,4095,0,885,400
2760.218200040981,4095,0,809,386
2761.2424000399187,4095,0,739,373
2762.354200007394,4007,0,688,365
2764.1188999987207,2925,0,638,350
2765.2295000152662,2115,0,592,331
2766.334200045094,1233,2204,832,358
2768.287400016561,562,3999,1023,380
2769.2856000503525,0,4095,1120,388
2771.1976999999024,0,4095,1198,403
2772.4072000128217,0,4095,1271,425
2773.6388000193983,0,4095,1337,447
2775.2015000442043,495,4095,1407,475
2777.1225000033155,1379,4095,1466,506
2778.642999997828,2343,2229,1283,496
2780.1958000054583,3135,367,1077,479
2781.2466000323184,3999,0,968,474
2783.000700001139,4095,0,895,464
2784.1425000224262,4095,0,827,447
2785.0124000106007,4095,0,765,433
2786.110200046096,3618,0,705,409
2788.0132000427693,2665,0,652,385
2789.0831000404432,3341,109,939,384
2791.0460000275634,3956,0,851,383
2792.1100000385195,4095,0,782,379
2793.0490000289865,4095,0,720,369
2794.2494000308216,4095,0,679,367
2796.1082000401802,4095,0,640,358
2797.232100041583,3309,0,596,342
2798.3225000207312,2417,0,560,327
2800.1788000110537,1488,1398,720,339
2801.302300009411,708,3283,927,364
2803.174400003627,104,4095,1062,374
2804.059500049334,0,4095,1147,393
2806.1344000161625,0,4095,1224,409
2807.134800008498,0,4095,1293,430
2809.0345000382513,0,4095,1361,458
2810.31080003595,1010,4095,1428,487
2812.178699998185,2014,3499,1369,495
2813.0747000104748,2927,826,1135,478
2815.1045000413433,3798,0,982,469
2816.024900006596,4095,0,910,461
2817.0727000106126,4095,0,841,449
2819.0375000122003,4095,0,778,434
2820.216400024947,1200,4095,1409,437
2822.163000004366,1891,3975,1387,449
2824.0812000003643,2542,1596,1187,437
2825.574600021355,3199,400,1021,430
2826.745000027586,4095,0,921,432
2828.3085000002757,4095,0,850,427
2829.3698000488803,4095,0,789,416
2830.6731000193395,4095,0,735,401
2832.0791000151075,3835,0,681,386
2833.1523000379093,2704,0,630,367
2834.3604000401683,1808,364,678,363
2836.2668000045232,944,2724,896,380
2837.4295000103302,320,4095,1072,395
2839.185799995903,0,4095,1152,402
2840.662300004624,0,4095,1228,423
2842.178500024602,0,4095,1296,438
2843.3623000164516,0,4095,1360,464
2845.0193000026047,735,4095,1426,493
2846.311400004197,1682,4095,1488,511
2848.195400030818,2644,1377,1221,496
2849.4316000142135,0,4095,1587,475
2851.0591000085697,0,4095,1607,491
2852.050200046506,0,4095,1619,507
2853.136399993673,0,4095,1641,527
2855.1911000395194,132,4095,1665,555
2857.274400012102,1082,4095,1697,577
2858.6387000395916,2041,3438,1602,581
2860.1694999961182,2912,890,1343,561
2861.2394999945536,3714,0,1168,549
2863.0665999953635,4095,0,1072,532
2864.1496000345796,4095,0,985,510
2865.352199994959,4095,0,905,493
2867.154900042806,4065,0,826,465
